1542121951.00
64.000000
-0.00
-0.00
-0.00
-0.00
-0.00
-0.00
-0.00
-0.00
-0.00
-0.00
0.00
0.01
0.01
-0.00
-0.03
-0.05
-0.05
0.00
0.13
0.36
0.66
1.01
1.37
1.72
2.06
2.40
2.79
3.24
3.80
4.42
5.06
5.66
6.20
6.68
7.15
7.68
8.31
9.14
10.09
11.04
11.88
12.56
13.14
13.76
14.65
15.96
17.91
20.32
22.90
25.38
27.58
29.57
31.68
34.32
37.81
42.54
48.15
54.10
59.83
64.97
69.58
74.14
79.34
85.71
93.76
103.00
112.62
121.73
129.77
136.75
143.30
150.75
157.77
166.64
177.95
191.79
206.97
220.57
228.25
225.36
208.53
176.87
132.76
80.05
23.07
-34.94
-92.44
-149.16
-205.23
-260.37
-313.74
-363.87
-409.83
-450.91
-486.50
-515.74
-537.23
-549.22
-549.96
-538.37
-514.21
-478.67
-433.88
-382.45
-327.02
-269.84
-212.63
-156.66
-102.95
-52.37
-5.90
35.58
71.43
101.35
125.50
144.38
158.69
169.15
176.37
180.75
182.57
182.07
179.51
175.23
169.65
163.18
156.15
148.81
141.30
133.69
126.02
118.33
110.69
103.16
95.80
88.68
81.83
75.25
68.95
62.95
57.25
51.86
46.78
42.03
37.59
33.45
29.61
26.07
22.81
19.83
17.11
14.67
12.48
10.54
8.83
7.35
6.07
4.97
4.05
3.27
2.62
2.09
1.65
1.30
1.01
0.79
0.61
0.47
0.37
0.29
0.23
0.19
0.17
0.15
0.15
0.16
0.18
0.20
0.23
0.26
0.31
0.35
0.39
0.44
0.49
0.53
0.58
0.64
0.69
0.75
0.81
0.88
0.96
1.04
1.13
1.23
1.35
1.48
1.62
1.78
1.96
2.16
2.39
2.63
2.90
3.20
3.54
3.90
4.30
4.73
5.20
5.70
6.25
6.83
7.46
8.13
8.85
9.61
10.42
11.27
12.18
13.12
14.11
15.17
16.29
17.48
18.73
20.02
21.33
22.59
23.73
24.68
25.28
25.43
24.99
23.88
22.02
19.42
16.12
12.18
7.79
3.14
-1.54
-6.04
-10.16
-13.74
-16.69
-18.91
-20.38
-21.10
-21.13
-20.58
-19.57
-18.23
-16.73
-15.18
-13.66
-12.17
-10.68
-9.17
-7.61
-6.01
-4.39
-2.83
-1.38
-0.06
1.20
2.56
4.05
5.69
7.49
9.33
11.02
12.40
13.43
14.28
15.31
16.65
18.42
20.58
22.86
24.84
26.15
26.65
26.60
26.59
26.92
27.83
29.32
30.95
31.95
31.63
29.60
26.14
22.08
17.85
13.97
10.49
6.78
1.53
-7.11
-21.39
-43.74
-71.35
-102.17
-132.89
-159.45
-177.96
-186.19
-184.33
-174.89
-161.61
-147.83
-136.03
-126.65
-118.92
-111.95
-105.57
-100.40
-97.37
-97.08
-99.36
-103.71
-108.65
-111.88
-110.38
-101.06
-81.66
-51.82
-13.59
28.96
70.53
106.69
134.94
155.00
168.13
176.08
180.35
181.91
181.51
179.86
177.91
176.47
175.73
174.95
172.73
167.63
158.90
146.94
133.19
119.59
107.83
98.82
92.59
88.60
86.16
84.79
84.24
84.42
85.31
86.82
88.75
90.85
92.80
94.34
95.31
95.85
96.32
97.14
98.56
100.45
102.29
103.25
102.64
100.13
95.93
90.67
85.24
80.48
76.97
74.99
74.47
75.07
76.27
77.42
77.83
76.89
74.05
68.89
61.17
50.86
38.20
23.71
8.09
-7.95
-23.98
-39.99
-56.40
-73.77
-92.32
-111.72
-131.02
-149.08
-165.00
-178.63
-190.51
-201.57
-212.60
-223.94
-235.41
-246.52
-256.70
-265.38
-271.94
-275.49
-274.95
-269.20
-257.63
-240.50
-219.10
-195.45
-171.72
-149.66
-130.16
-113.16
-97.92
-83.43
-68.82
-53.78
-38.60
-24.06
-11.06
-0.15
8.56
15.42
20.89
25.34
28.88
31.50
33.29
34.61
35.93
37.46
39.05
40.16
40.24
39.05
36.85
34.27
31.93
30.15
28.83
27.62
26.12
24.14
21.80
19.47
17.52
16.13
15.29
14.73
14.10
13.11
11.56
9.43
6.80
3.73
0.27
-3.62
-7.94
-12.70
-17.81
-23.16
-28.59
-33.96
-39.13
-43.98
-48.46
-52.69
-56.95
-61.67
-67.31
-74.17
-82.11
-90.41
-97.78
-102.58
-103.30
-98.97
-89.61
-76.19
-60.33
-43.81
-28.05
-13.83
-1.33
9.69
19.61
28.71
37.12
44.77
51.49
57.05
61.22
63.89
65.08
64.96
63.79
61.91
59.66
57.37
55.28
53.47
51.88
50.23
48.20
45.54
42.16
38.16
33.76
29.24
24.78
20.51
16.44
12.53
8.68
4.77
0.65
-3.86
-8.92
-14.56
-20.66
-26.99
-33.19
-38.98
-44.29
-49.27
-54.38
-60.18
-67.18
-75.60
-85.17
-95.05
-103.84
-109.84
-111.40
-107.43
-97.78
-83.35
-65.78
-47.03
-28.78
-12.14
2.52
15.27
26.45
36.39
45.34
53.46
60.85
67.50
73.36
78.26
82.03
84.55
85.88
86.24
86.00
85.51
84.97
84.36
83.49
82.06
79.82
76.73
72.91
68.67
64.37
60.33
56.75
53.72
51.23
49.23
47.60
46.23
45.02
43.83
42.59
41.28
39.94
38.60
37.27
35.82
34.11
31.96
29.29
26.14
22.74
19.41
16.41
13.87
11.69
9.55
7.05
3.92
0.03
-4.45
-9.20
-13.86
-18.21
-22.27
-26.28
-30.59
-35.49
-41.08
-47.20
-53.57
-59.84
-65.77
-71.38
-76.93
-82.89
-89.83
-98.19
-107.95
-118.47
-128.33
-135.61
-138.41
-135.39
-126.24
-111.75
-93.54
-73.50
-53.36
-34.39
-17.28
-2.31
10.65
21.97
32.09
41.47
50.30
58.50
65.82
71.91
76.61
80.00
82.33
83.98
85.22
86.28
87.26
88.19
89.00
89.57
89.68
89.08
87.57
85.20
82.15
78.80
75.49
72.43
69.58
66.70
63.60
60.18
56.55
52.93
49.58
46.61
43.95
41.48
39.08
36.69
34.35
32.11
30.01
27.99
25.92
23.69
21.25
18.66
16.09
13.69
11.58
9.73
7.93
5.88
3.28
-0.03
-4.05
-8.56
-13.28
-17.95
-22.51
-27.06
-31.88
-37.19
-43.07
-49.37
-55.71
-61.68
-66.98
-71.51
-75.45
-79.24
-83.53
-88.98
-96.06
-104.74
-114.22
-122.97
-128.94
-130.23
-125.58
-114.93
-99.30
-80.49
-60.49
-40.97
-22.98
-6.87
7.43
20.20
31.78
42.36
51.93
60.36
67.43
72.96
76.83
79.06
79.78
79.19
77.60
75.46
73.32
71.73
71.09
71.45
72.48
73.63
74.28
74.06
72.92
71.01
68.67
66.09
63.35
60.37
57.00
53.21
49.00
44.45
39.72
34.97
30.41
26.28
22.84
20.25
18.55
17.65
17.28
17.17
17.04
16.64
15.82
14.50
12.68
10.45
7.87
4.96
1.66
-2.11
-6.39
-11.13
-16.04
-20.84
-25.20
-28.97
-32.19
-35.04
-37.83
-40.80
-44.12
-47.83
-51.83
-56.00
-60.22
-64.43
-68.69
-73.20
-78.34
-84.51
-92.06
-100.94
-110.48
-119.25
-125.37
-126.89
-122.53
-112.07
-96.54
-77.83
-58.12
-39.28
-22.49
-8.21
3.65
13.43
21.57
28.48
34.45
39.74
44.40
48.44
51.74
54.17
55.62
56.17
56.00
55.42
54.76
54.38
54.46
55.05
55.95
56.81
57.21
56.79
55.44
53.26
50.55
47.64
44.73
41.87
38.95
35.87
32.65
29.47
26.62
24.28
22.54
21.29
20.30
19.38
18.41
17.33
16.10
14.68
13.00
11.00
8.64
5.92
2.84
-0.57
-4.20
-7.91
-11.46
-14.68
-17.45
-19.85
-22.05
-24.30
-26.77
-29.50
-32.46
-35.60
-38.90
-42.47
-46.43
-50.92
-55.94
-61.41
-67.17
-73.15
-79.45
-86.43
-94.35
-103.16
-112.06
-119.58
-123.82
-123.15
-116.87
-105.52
-90.83
-75.13
-60.58
-48.66
-39.97
-34.45
-31.62
-30.54
-29.68
-26.79
-19.21
-4.86
16.60
42.87
69.11
89.26
98.05
92.89
74.62
46.64
13.46
-21.03
-54.11
-83.81
-108.13
-124.67
-131.28
-127.14
-113.59
-93.84
-71.69
-49.77
-28.63
-7.02
16.75
43.43
72.12
100.86
127.68
151.85
174.11
196.07
219.07
242.94
265.55
283.25
292.07
289.25
274.32
249.28
217.79
183.70
149.99
118.38
89.71
64.83
45.01
31.67
25.60
26.06
30.63
35.78
38.05
35.21
26.92
14.48
0.06
-14.16
-26.71
-37.06
-45.54
-53.01
-60.55
-69.31
-80.13
-93.25
-107.77
-121.46
-131.13
-133.64
-127.33
-113.01
-93.87
-74.34
-58.15
-46.96
-39.89
-34.42
-27.84
-18.53
-6.46
7.20
20.85
33.13
43.18
50.58
55.15
56.94
56.25
53.76
50.61
48.21
47.80
50.08
54.81
60.84
66.56
70.61
72.49
72.63
72.02
71.56
71.44
71.18
69.97
67.24
63.09
58.02
52.62
46.99
40.62
32.72
22.72
10.90
-1.63
-13.22
-22.41
-28.43
-31.53
-32.69
-33.12
-33.71
-34.80
-36.42
-38.63
-41.91
-47.07
-54.82
-65.20
-77.28
-89.29
-99.38
-106.44
-110.47
-112.54
-114.11
-116.21
-119.04
-121.94
-124.00
-124.62
-123.94
-122.82
-122.44
-123.94
-127.90
-134.29
-142.50
-151.52
-160.22
-167.50
-172.35
-173.97
-171.88
-166.17
-157.47
-147.07
-136.45
-126.81
-118.42
-110.28
-100.36
-86.32
-66.66
-41.59
-13.15
15.51
41.50
63.38
81.59
97.87
113.96
130.51
146.68
160.77
171.29
177.90
181.38
183.04
183.65
183.03
180.14
173.89
163.80
150.42
135.17
119.73
105.42
92.72
81.29
70.31
59.10
47.66
36.65
27.17
20.01
15.34
12.61
10.93
9.59
8.39
7.52
7.40
8.31
10.27
13.16
16.72
20.50
23.86
25.94
26.00
23.88
20.10
15.74
12.00
9.56
8.38
7.89
7.39
6.38
4.75
2.53
-0.28
-3.88
-8.47
-14.20
-20.91
-28.14
-35.32
-41.86
-47.47
-52.21
-56.55
-61.25
-66.97
-73.94
-81.63
-88.83
-93.96
-95.68
-93.38
-87.34
-78.55
-68.15
-57.17
-46.36
-36.08
-26.65
-18.27
-11.15
-5.37
-0.87
2.46
4.90
6.79
8.49
10.33
12.48
14.91
17.44
19.83
21.92
23.64
24.95
25.75
25.82
24.95
23.03
20.24
16.98
13.73
10.96
8.93
7.78
7.50
7.98
8.96
9.82
9.85
8.32
4.80
-0.52
-6.88
-13.23
-18.59
-22.50
-25.11
-27.06
-29.29
-32.64
-37.74
-44.91
-54.07
-64.85
-76.60
-88.61
-100.23
-111.02
-120.66
-128.80
-134.96
-138.68
-139.87
-138.99
-137.20
-136.02
-136.82
-140.17
-145.77
-152.67
-159.67
-165.70
-169.94
-171.70
-170.49
-166.33
-160.19
-154.12
-150.69
-151.75
-157.20
-164.58
-169.72
-168.45
-158.34
-139.67
-114.93
-87.55
-60.27
-34.42
-10.01
13.54
36.66
59.42
81.56
102.79
122.83
141.30
157.62
170.93
180.29
184.93
184.43
178.95
169.37
157.29
144.86
134.33
127.44
124.81
125.73
128.31
130.17
129.11
123.60
113.01
97.51
77.97
55.76
32.66
10.53
-9.04
-25.26
-38.47
-49.87
-60.82
-71.80
-81.92
-89.19
-91.57
-88.09
-79.41
-67.49
-54.45
-41.72
-29.89
-19.19
-10.35
-4.69
-3.59
-7.34
-14.52
-22.35
-27.90
-29.60
-27.88
-24.83
-22.99
-24.11
-28.39
-34.79
-41.79
-48.33
-54.31
-60.31
-67.04
-74.54
-81.93
-87.55
-89.66
-87.11
-79.76
-68.23
-53.22
-34.93
-12.76
14.41
47.67
87.54
133.73
185.15
239.90
295.24
347.58
392.86
427.53
449.78
460.42
462.89
461.89
461.32
462.67
464.34
462.49
452.80
432.09
399.09
354.44
300.16
239.40
176.30
115.93
63.38
22.41
-5.99
-24.10
-36.69
-49.16
-65.42
-86.51
-110.60
-134.34
-154.75
-170.54
-182.30
-191.56
-199.37
-205.39
-208.12
-205.94
-198.47
-187.18
-174.89
-164.47
-157.47
-153.69
-151.56
-149.27
-145.68
-140.57
-134.24
-126.95
-118.67
-109.29
-98.87
-87.86
-77.16
-68.04
-61.91
-59.97
-62.67
-69.24
-77.64
-85.18
-89.67
-90.44
-88.45
-85.52
-83.16
-81.77
-80.68
-79.12
-76.99
-75.14
-74.82
-76.66
-80.01
-83.15
-83.98
-81.02
-73.82
-62.86
-49.22
-34.03
-18.42
-3.44
10.03
21.40
30.56
37.97
44.52
51.13
58.43
66.44
74.56
81.76
87.00
89.59
89.48
87.27
84.03
80.96
79.08
78.95
80.59
83.51
86.94
89.95
91.69
91.55
89.27
85.04
79.42
73.20
67.13
61.75
57.27
53.52
50.15
46.73
42.93
38.62
33.88
28.99
24.44
20.64
17.82
15.85
14.19
12.11
8.97
4.54
-0.96
-6.99
-13.02
-18.74
-24.16
-29.39
-34.50
-39.40
-43.95
-48.19
-52.42
-57.21
-63.01
-69.84
-77.32
-84.74
-91.54
-97.51
-102.68
-106.95
-109.66
-109.47
-104.80
-94.61
-79.01
-59.51
-38.58
-18.80
-1.94
11.49
22.23
31.75
41.48
52.19
63.73
75.07
84.68
91.23
94.12
93.78
91.50
88.97
87.52
87.70
89.18
91.19
92.95
94.16
94.89
95.45
95.95
96.18
95.60
93.73
90.43
86.08
81.43
77.23
73.88
71.20
68.61
65.39
61.17
56.10
50.78
45.89
41.73
38.15
34.64
30.70
26.24
21.64
17.54
14.46
12.49
11.24
10.11
8.64
6.70
4.41
1.95
-0.73
-3.83
-7.59
-12.03
-16.83
-21.54
-25.74
-29.38
-32.78
-36.56
-41.32
-47.32
-54.32
-61.64
-68.37
-73.83
-77.83
-80.79
-83.69
-87.66
-93.62
-101.84
-111.59
-121.17
-128.11
-129.83
-124.35
-111.15
-91.43
-67.99
-44.41
-23.92
-8.45
1.76
7.90
11.79
15.12
18.90
23.47
28.70
34.41
40.50
46.90
53.40
59.55
64.66
68.11
69.62
69.39
68.06
66.37
64.87
63.65
62.46
60.85
58.52
55.51
52.22
49.17
46.69
44.84
43.31
41.59
39.21
35.95
31.91
27.42
22.89
18.70
15.09
12.13
9.76
7.85
6.20
4.63
3.08
1.60
0.44
-0.09
0.15
1.00
1.92
2.16
1.08
-1.57
-5.57
-10.34
-15.25
-19.92
-24.30
-28.66
-33.35
-38.57
-44.27
-50.22
-56.05
-61.53
-66.50
-71.06
-75.42
-79.93
-85.01
-90.92
-97.67
-104.78
-111.15
-115.31
-115.65
-111.04
-101.21
-86.89
-69.71
-51.65
-34.48
-19.38
-6.84
3.24
11.26
17.73
23.07
27.64
31.70
35.43
38.94
42.20
45.17
47.80
50.11
52.17
54.01
55.59
56.78
57.42
57.42
56.76
55.56
53.94
51.99
49.70
47.02
43.88
40.34
36.57
32.83
29.39
26.39
23.85
21.64
19.63
17.69
15.84
14.08
12.33
10.45
8.23
5.55
2.45
-0.89
-4.27
-7.58
-10.83
-14.10
-17.42
-20.67
-23.68
-26.41
-29.02
-31.83
-35.17
-39.15
-43.54
-47.88
-51.75
-54.91
-57.55
-60.15
-63.29
-67.54
-73.25
-80.47
-88.85
-97.59
-105.39
-110.64
-111.75
-107.65
-98.23
-84.49
-68.24
-51.58
-36.22
-23.11
-12.34
-3.41
4.38
11.64
18.74
25.70
32.37
38.44
43.53
47.32
49.60
50.41
49.96
48.75
47.38
46.44
46.37
47.34
49.14
51.29
53.15
54.16
54.00
52.63
50.29
47.35
44.20
41.21
38.62
36.55
34.93
33.54
32.13
30.43
28.35
25.91
23.24
20.48
17.66
14.70
11.49
7.96
4.14
0.28
-3.25
-6.07
-7.89
-8.75
-8.99
-9.18
-9.84
-11.26
-13.36
-15.77
-18.02
-19.86
-21.44
-23.11
-25.37
-28.56
-32.73
-37.65
-42.91
-48.14
-53.04
-57.44
-61.31
-64.75
-67.99
-71.47
-75.76
-81.36
-88.35
-96.02
-102.89
-106.93
-106.30
-100.00
-88.33
-72.80
-55.62
-38.94
-24.27
-12.20
-2.55
5.23
11.72
17.31
22.16
26.38
30.11
33.57
36.96
40.37
43.66
46.53
48.67
49.97
50.60
50.91
51.31
51.98
52.84
53.55
53.69
52.98
51.32
48.86
45.80
42.41
38.84
35.20
31.54
27.86
24.15
20.45
16.82
13.33
10.08
7.10
4.38
1.81
-0.71
-3.30
-5.92
-8.44
-10.70
-12.64
-14.40
-16.30
-18.70
-21.76
-25.30
-28.73
-31.08
-31.27
-28.24
-21.19
-9.82
5.40
23.14
41.23
57.04
68.19
73.16
71.71
64.79
54.09
41.43
28.29
15.63
3.89
-6.87
-17.04
-27.29
-38.57
-51.57
-66.39
-82.21
-97.56
-110.73
-120.55
-126.68
-129.55
-129.95
-128.55
-125.68
-121.31
-115.17
-106.80
-95.61
-81.11
-63.27
-42.90
-21.64
-1.45
16.37
32.04
47.31
64.48
84.91
107.82
130.32
148.63
159.81
163.11
160.00
153.13
144.83
135.96
125.64
111.77
92.21
65.87
33.39
-2.76
-39.09
-72.16
-99.91
-122.19
-140.64
-157.62
-174.96
-193.06
-210.91
-226.92
-239.88
-249.60
-256.82
-262.70
-268.39
-274.98
-283.84
-296.49
-314.06
-336.11
-359.61
-378.87
-386.82
-377.22
-346.79
-296.38
-230.46
-155.45
-77.53
-1.25
71.02
138.53
201.45
260.33
316.32
371.29
427.52
486.30
546.20
601.94
645.01
666.16
658.88
622.00
560.13
481.65
395.49
308.48
224.50
145.62
73.87
12.18
-35.99
-68.21
-84.48
-87.47
-81.55
-71.15
-59.37
-47.71
-36.36
-25.15
-14.20
-3.94
5.08
12.66
18.97
24.51
29.71
34.73
39.32
43.04
45.44
46.18
45.26
42.88
39.51
35.67
32.00
29.00
27.09
26.50
27.32
29.39
32.23
35.12
37.15
37.56
36.00
32.62
27.97
22.84
18.05
14.42
12.78
13.97
18.60
26.75
37.70
50.06
62.12
72.36
79.83
84.17
85.39
83.59
78.80
71.08
60.80
48.81
36.42
25.21
16.73
12.26
12.70
18.44
29.27
44.21
61.25
77.39
88.98
92.31
84.55
64.49
33.02
-6.99
-51.38
-95.68
-136.04
-170.02
-196.78
-216.96
-232.18
-244.46
-255.70
-267.02
-278.21
-287.48
-291.75
-287.63
-272.87
-247.77
-215.59
-181.80
-151.86
-128.89
-112.30
-98.12
-80.87
-56.04
-21.93
20.13
66.65
113.47
156.87
194.09
223.33
243.68
255.01
257.94
253.59
243.13
227.41
206.83
181.93
154.09
125.70
99.76
78.75
63.44
52.66
43.88
34.22
21.46
4.17
-18.50
-46.94
-80.44
-116.04
-147.56
-166.06
-162.51
-131.51
-74.81
-1.91
72.54
133.91
172.73
187.44
183.56
169.89
154.21
140.26
127.47
112.84
93.21
66.75
33.06
-7.29
-52.93
-101.17
-147.42
-185.54
-209.36
-215.09
-203.19
-178.94
-150.69
-127.09
-114.32
-114.70
-127.07
-148.30
-175.16
-205.43
-237.91
-271.60
-304.81
-334.67
-357.51
-369.93
-370.20
-359.34
-341.08
-320.63
-302.72
-289.62
-280.37
-271.51
-258.88
-239.62
-213.30
-181.40
-145.96
-108.13
-67.59
-23.40
24.59
74.31
121.31
159.83
184.96
194.50
189.78
175.21
156.49
138.71
124.81
115.16
108.38
102.65
96.87
91.14
86.46
83.83
83.45
84.58
85.86
86.10
84.80
82.27
79.21
76.35
74.03
72.30
71.03
70.12
69.56
69.23
68.83
67.85
65.82
62.63
58.60
54.30
50.13
45.96
41.13
34.85
26.54
15.87
2.65
-13.55
-33.36
-57.24
-84.70
-114.02
-142.60
-168.28
-190.78
-212.35
-236.94
-267.97
-305.86
-346.92
-384.15
-410.02
-419.58
-412.42
-392.42
-365.75
-338.04
-312.43
-289.23
-266.97
-244.20
-220.47
-196.41
-172.88
-149.99
-126.59
-100.54
-69.71
-32.97
9.12
54.36
99.50
141.43
178.26
209.83
237.64
263.80
290.01
316.71
343.16
368.14
390.79
410.75
427.79
441.09
448.96
449.38
440.93
423.64
398.91
368.78
335.08
299.33
263.06
228.86
200.72
183.59
181.76
196.84
226.41
263.94
300.33
326.65
337.05
330.56
311.20
285.87
261.40
241.75
227.00
214.37
200.66
184.42
166.88
150.64
137.69
127.53
117.08
102.09
79.45
48.99
13.70
-21.75
-53.27
-79.25
-101.26
-123.12
-149.38
-183.70
-227.67
-280.19
-337.26
-392.49
-438.51
-469.06
-480.90
-474.82
-454.76
-425.66
-391.14
-352.21
-307.68
-255.81
-196.06
-130.03
-61.35
5.13
64.28
111.62
144.11
161.07
164.93
160.99
155.88
155.08
160.68
170.46
178.87
179.54
168.30
144.88
112.77
77.61
44.77
17.61
-3.17
-18.87
-31.60
-43.18
-54.62
-66.04
-77.02
-86.88
-95.00
-101.13
-105.64
-109.49
-114.03
-120.50
-129.46
-140.44
-151.68
-160.26
-162.49
-154.77
-135.11
-104.15
-65.49
-24.59
13.20
44.48
68.55
86.59
100.09
109.79
115.74
118.45
119.93
123.37
131.80
145.95
163.08
177.75
183.92
177.76
159.25
132.11
101.95
73.94
50.85
32.31
15.47
-3.41
-27.23
-56.89
-90.99
-126.42
-159.33
-185.82
-202.51
-206.78
-197.33
-174.61
-140.94
-99.95
-55.42
-10.31
33.45
74.48
111.06
140.49
159.78
166.83
161.71
147.09
127.35
107.01
89.08
74.32
61.50
48.56
33.73
16.43
-2.43
-20.74
-35.68
-44.36
-44.54
-35.14
-16.77
8.20
35.88
61.72
81.65
93.05
95.32
89.71
78.40
63.66
47.28
30.69
15.44
3.39
-3.62
-4.83
-1.43
3.25
4.72
-0.98
-15.53
-37.66
-63.49
-87.86
-105.82
-113.81
-110.28
-95.95
-73.70
-48.21
-25.08
-9.70
-5.67
-13.78
-31.71
-54.74
-77.28
-94.48
-103.44
-103.59
-96.59
-85.80
-75.30
-68.85
-68.65
-74.26
-82.44
-87.95
-85.39
-71.41
-46.38
-14.86
15.79
37.88
45.95
38.47
17.83
-10.77
-41.07
-67.11
-84.00
-88.24
-78.23
-54.91
-22.33
12.70
42.15
59.36
61.37
50.07
31.33
12.58
-0.03
-3.81
-0.03
7.15
12.81
13.46
8.43
-0.19
-8.86
-14.55
-16.20
-15.13
-14.05
-15.15
-18.82
-23.35
-26.14
-25.24
-20.32
-12.47
-3.13
6.66
16.34
25.08
31.09
31.76
24.98
10.66
-8.55
-27.78
-41.73
-46.73
-41.86
-28.95
-11.59
6.29
21.34
31.50
36.20
36.30
33.79
31.03
30.06
31.83
36.00
41.29
45.97
48.42
47.46
42.46
33.41
21.09
7.13
-6.21
-16.48
-21.75
-21.11
-15.03
-5.18
6.06
16.12
22.94
25.45
23.71
18.76
12.21
5.68
0.44
-2.83
-3.89
-2.91
-0.34
3.05
6.18
7.87
7.17
3.80
-1.85
-8.95
-16.46
-23.55
-29.61
-34.21
-37.01
-37.86
-36.90
-34.69
-32.08
-30.01
-29.19
-29.90
-31.93
-34.77
-37.82
-40.69
-43.21
-45.58
-48.26
-51.81
-56.63
-62.77
-69.76
-76.63
-82.14
-85.05
-84.53
-80.36
-73.03
-63.51
-52.97
-42.36
-32.28
-22.92
-14.25
-6.28
0.81
6.75
11.45
15.08
18.09
21.08
24.44
28.18
32.05
35.70
38.95
41.85
44.56
47.19
49.68
51.89
53.76
55.40
57.07
58.99
61.13
63.14
64.48
64.70
63.76
62.03
60.22
58.97
58.59
58.97
59.68
60.24
60.31
59.67
58.14
55.47
51.31
45.44
37.93
29.33
20.43
12.06
4.83
-1.07
-5.77
-9.47
-12.35
-14.53
-16.14
-17.47
-18.99
-21.22
-24.56
-29.11
-34.68
-40.82
-47.04
-52.97
-58.44
-63.38
-67.81
-71.75
-75.30
-78.70
-82.34
-86.62
-91.54
-96.52
-100.21
-100.93
-97.23
-88.61
-75.72
-60.13
-43.72
-28.06
-14.00
-1.81
8.62
17.40
24.69
30.73
36.03
41.20
46.70
52.51
58.11
62.73
65.72
66.95
66.78
65.82
64.59
63.31
61.95
60.46
58.86
57.33
56.00
54.82
53.48
51.64
49.11
46.02
42.78
39.86
37.56
35.85
34.50
33.26
32.14
31.27
30.87
31.05
31.74
32.78
34.11
35.76
37.71
39.75
41.40
42.11
41.66
40.36
39.01
38.54
39.45
41.50
43.85
45.55
46.17
46.10
46.35
47.98
51.50
56.52
61.88
66.01
67.56
65.66
60.01
50.81
38.57
24.02
7.97
-8.75
-25.37
-41.21
-55.67
-68.04
-77.48
-83.06
-84.10
-80.46
-72.78
-62.36
-51.13
-41.22
-34.58
-32.62
-35.81
-43.48
-54.05
-65.45
-75.92
-84.53
-91.43
-97.49
-103.69
-110.56
-117.93
-125.05
-130.70
-133.43
-131.65
-123.95
-109.53
-88.65
-62.80
-34.48
-6.45
19.09
41.19
60.17
77.04
92.75
107.45
120.16
129.09
132.18
127.67
114.54
92.71
62.90
26.61
-14.04
-56.45
-97.76
-135.50
-167.91
-193.83
-212.07
-220.78
-217.43
-199.71
-167.00
-121.46
-67.99
-12.85
38.41
82.47
118.63
147.70
170.62
187.46
197.69
201.15
199.12
194.30
189.80
187.65
187.82
188.29
186.18
179.52
168.46
155.36
143.55
135.39
130.70
126.43
118.04
101.65
76.18
43.86
9.15
-23.44
-51.46
-75.22
-96.87
-118.21
-138.64
-154.40
-159.99
-150.88
-126.08
-89.35
-47.79
-9.00
21.92
43.94
59.47
71.96
83.41
93.05
97.92
94.50
80.57
56.09
22.81
-16.29
-57.87
-98.40
-134.50
-163.28
-182.96
-193.38
-195.78
-191.90
-182.75
-168.03
-146.62
-117.85
-82.92
-45.37
-10.27
17.44
34.53
40.26
36.10
24.68
8.86
-9.03
-27.15
-44.10
-58.72
-70.20
-78.38
-83.97
-88.32
-92.76
-98.02
-103.64
-107.85
-108.15
-102.20
-88.82
-68.56
-43.75
-17.95
4.96
21.95
31.66
34.76
33.70
31.60
30.96
32.54
35.19
36.77
35.82
32.74
29.97
30.75
37.19
49.00
63.47
76.71
85.28
87.33
82.73
72.73
59.24
44.43
30.43
18.85
10.36
4.43
-0.41
-5.56
-11.31
-16.46
-19.02
-17.45
-11.94
-4.40
2.31
5.84
5.18
0.70
-6.58
-15.57
-25.45
-35.55
-45.30
-54.34
-62.95
-71.92
-81.96
-92.63
-101.84
-106.14
-102.37
-89.27
-68.39
-43.63
-19.64
-0.23
12.64
18.96
20.06
17.96
14.86
12.67
12.56
14.71
18.32
22.24
25.80
29.52
34.81
43.16
54.88
68.58
81.70
91.60
96.61
96.44
91.72
83.32
71.97
58.48
43.98
30.12
18.69
10.85
6.63
4.96
4.30
3.46
1.94
-0.13
-2.49
-5.22
-8.70
-13.34
-19.08
-25.41
-31.53
-36.70
-40.70
-44.00
-47.77
-53.41
-61.87
-72.98
-85.02
-95.05
-99.88
-97.38
-87.37
-71.72
-53.53
-35.87
-20.84
-9.28
-1.11
4.23
7.55
9.85
12.42
16.43
22.50
30.14
37.76
43.51
46.09
45.55
43.30
41.48
42.02
45.88
52.80
61.65
70.82
78.65
83.58
84.41
80.60
72.60
61.93
50.98
42.13
36.94
35.48
36.30
37.21
36.23
32.37
25.96
18.19
10.49
3.92
-1.10
-4.63
-7.03
-8.71
-10.18
-12.10
-15.30
-20.63
-28.78
-39.95
-53.66
-68.80
-83.64
-96.13
-104.10
-105.65
-99.73
-86.57
-67.81
-46.23
-24.97
-6.57
7.64
17.56
23.91
27.64
29.68
30.88
32.15
34.43
38.30
43.57
49.11
53.32
55.04
54.43
53.08
53.25
56.69
63.51
72.17
80.18
85.33
86.58
84.20
79.19
72.63
65.33
57.77
50.46
44.03
39.12
36.06
34.60
34.06
33.65
32.85
31.44
29.50
27.21
24.64
21.84
18.80
15.54
12.23
9.27
7.34
7.27
9.65
14.29
20.02
24.90
27.11
25.70
21.21
15.29
9.93
6.39
4.75
4.09
3.13
1.01
-2.41
-6.65
-11.02
-14.98
-18.33
-21.19
-23.82
-26.61
-29.87
-33.78
-38.33
-43.27
-48.26
-53.10
-57.73
-62.27
-66.74
-70.97
-74.55
-77.19
-78.95
-80.39
-82.26
-85.04
-88.46
-91.48
-92.62
-90.63
-84.99
-76.00
-64.54
-51.67
-38.23
-24.80
-11.83
0.22
10.90
19.65
25.97
29.51
30.48
29.91
29.73
32.20
38.96
49.99
63.33
75.73
83.97
86.24
82.59
74.66
64.64
54.43
45.20
37.61
32.08
28.87
27.96
28.74
30.21
31.26
31.21
29.85
27.47
24.64
21.89
19.66
18.25
17.74
17.88
18.10
17.76
16.37
13.88
10.69
7.42
4.54
2.12
-0.15
-2.70
-5.64
-8.62
-10.86
-11.55
-10.30
-7.30
-3.27
0.92
4.48
7.00
8.25
8.00
5.89
1.42
-5.70
-15.17
-26.00
-36.65
-45.69
-52.30
-56.57
-59.39
-62.04
-65.66
-70.96
-78.07
-86.66
-95.91
-104.64
-111.35
-114.45
-112.67
-105.52
-93.51
-78.14
-61.34
-44.92
-30.17
-17.62
-7.21
1.47
8.96
15.75
21.99
27.56
31.99
34.88
36.33
37.21
39.10
43.66
51.86
63.45
76.89
90.02
100.73
107.62
109.91
107.36
100.19
89.27
76.17
63.00
51.78
43.59
38.13
33.98
29.61
24.39
19.11
15.58
15.49
19.34
26.04
33.33
38.59
39.90
36.53
29.06
18.98
8.13
-1.84
-9.92
-15.76
-19.58
-21.88
-23.21
-24.02
-24.64
-25.38
-26.53
-28.34
-30.78
-33.54
-36.03
-37.68
-38.25
-38.04
-37.78
-38.37
-40.48
-44.20
-49.03
-54.04
-58.38
-61.69
-64.44
-67.65
-72.48
-79.51
-88.25
-97.15
-104.01
-106.75
-104.08
-95.83
-83.03
-67.42
-50.95
-35.22
-21.21
-9.20
1.05
10.06
18.26
25.89
32.86
38.89
43.68
47.08
49.16
50.16
50.36
50.00
49.28
48.38
47.47
46.78
46.46
46.44
46.49
46.24
45.37
43.78
41.63
39.23
36.85
34.61
32.45
30.28
28.08
26.05
24.43
23.37
22.78
22.32
21.55
20.13
17.96
15.25
12.36
9.70
7.63
6.37
5.99
6.34
7.07
7.69
7.64
6.49
4.16
0.85
-2.95
-6.81
-10.49
-14.04
-17.67
-21.59
-25.82
-30.19
-34.46
-38.49
-42.37
-46.35
-50.70
-55.63
-61.28
-67.74
-75.05
-82.98
-90.87
-97.41
-100.93
-99.86
-93.34
-81.73
-66.46
-49.60
-33.10
-18.24
-5.47
5.34
14.52
22.26
28.55
33.32
36.64
38.76
40.10
41.10
42.03
42.94
43.70
44.13
44.15
43.87
43.57
43.56
44.01
44.82
45.64
46.02
45.55
44.13
41.93
39.37
36.88
34.72
32.93
31.39
29.93
28.46
27.00
25.59
24.31
23.16
22.10
21.08
20.02
18.82
17.32
15.24
12.36
8.55
3.93
-1.15
-6.23
-10.94
-15.04
-18.65
-22.11
-25.87
-30.33
-35.65
-41.69
-48.01
-54.03
-59.27
-63.55
-67.13
-70.68
-75.09
-81.12
-89.06
-98.50
-108.24
-116.49
-121.22
-120.72
-114.02
-101.29
-83.74
-63.43
-42.62
-23.26
-6.56
7.03
17.76
26.21
33.03
38.86
44.14
49.14
53.92
58.27
61.86
64.34
65.55
65.54
64.62
63.17
61.57
60.05
58.81
57.90
57.39
57.25
57.31
57.30
56.97
56.16
54.90
53.41
51.94
50.61
49.34
47.92
46.13
43.82
41.06
38.08
35.13
32.42
29.99
27.75
25.48
23.01
20.24
17.19
14.01
10.86
7.92
5.24
2.83
0.62
-1.52
-3.75
-6.21
-9.02
-12.18
-15.61
-19.18
-22.74
-26.25
-29.80
-33.52
-37.55
-41.96
-46.67
-51.50
-56.21
-60.62
-64.68
-68.52
-72.50
-77.14
-82.97
-90.24
-98.63
-107.18
-114.22
-117.85
-116.42
-109.04
-95.97
-78.63
-59.11
-39.69
-22.16
-7.47
4.28
13.59
21.24
27.87
33.93
39.59
44.85
49.61
53.71
57.03
59.47
61.07
61.97
62.42
62.66
62.89
63.25
63.75
64.35
64.91
65.20
64.86
63.62
61.35
58.24
54.70
51.22
48.17
45.62
43.45
41.42
39.37
37.34
35.46
33.82
32.39
31.03
29.55
27.81
25.82
23.64
21.36
19.04
16.72
14.36
11.94
9.38
6.57
3.41
-0.15
-3.98
-7.85
-11.45
-14.59
-17.30
-19.87
-22.75
-26.32
-30.75
-35.87
-41.28
-46.48
-51.13
-55.18
-58.94
-62.97
-67.94
-74.44
-82.81
-92.84
-103.62
-113.51
-120.37
-122.09
-117.22
-105.52
-88.13
-67.28
-45.56
-25.22
-7.59
6.99
18.89
28.75
37.06
44.09
49.85
54.34
57.67
60.09
61.89
63.31
64.44
65.23
65.60
65.48
64.94
64.13
63.26
62.51
61.91
61.35
60.67
59.66
58.17
56.14
53.65
50.89
48.07
45.41
43.02
40.83
38.69
36.42
33.96
31.43
29.05
26.99
25.23
23.55
21.57
19.02
15.88
12.36
8.84
5.64
2.87
0.40
-2.06
-4.76
-7.84
-11.24
-14.71
-18.02
-21.04
-23.81
-26.54
-29.51
-32.96
-36.99
-41.58
-46.51
-51.51
-56.30
-60.67
-64.68
-68.60
-72.96
-78.44
-85.63
-94.66
-104.97
-115.16
-123.15
-126.70
-124.05
-114.58
-99.02
-79.34
-58.05
-37.51
-19.35
-4.20
8.12
18.18
26.54
33.62
39.66
44.84
49.37
53.36
56.85
59.71
61.70
62.72
62.83
62.39
61.86
61.64
61.91
62.53
63.18
63.45
63.03
61.81
59.84
57.27
54.39
51.39
48.49
45.80
43.36
41.16
39.10
37.08
35.05
33.02
31.10
29.41
28.01
26.86
25.78
24.59
23.08
21.15
18.78
16.09
13.22
10.33
7.52
4.84
2.23
-0.41
-3.23
-6.41
-10.01
-14.01
-18.24
-22.46
-26.48
-30.28
-34.09
-38.28
-43.21
-49.02
-55.44
-61.96
-67.95
-73.05
-77.25
-80.93
-84.73
-89.34
-95.34
-102.95
-111.78
-120.66
-127.62
-130.34
-126.77
-115.86
-98.08
-75.31
-50.27
-25.73
-3.81
14.33
28.39
38.66
45.66
50.06
52.60
54.12
55.41
57.05
59.25
61.75
64.02
65.46
65.72
64.88
63.37
61.83
60.73
60.26
60.19
60.13
59.62
58.41
56.51
54.11
51.50
48.93
46.54
44.31
42.15
39.94
37.57
35.03
32.36
29.72
27.24
24.96
22.82
20.66
18.35
15.90
13.43
11.19
9.36
7.99
6.92
5.83
4.38
2.43
0.02
-2.57
-5.07
-7.31
-9.35
-11.42
-13.82
-16.78
-20.35
-24.50
-29.07
-33.87
-38.67
-43.18
-47.17
-50.63
-53.86
-57.51
-62.38
-69.03
-77.35
-86.45
-94.63
-99.89
-100.47
-95.35
-84.59
-69.27
-51.23
-32.56
-15.10
-0.18
11.62
20.29
26.22
29.98
32.13
33.17
33.52
33.50
33.29
32.96
32.46
31.71
30.78
29.87
29.35
29.60
30.88
33.23
36.41
40.03
43.53
46.41
48.30
49.06
48.81
47.81
46.40
44.80
43.14
41.37
39.38
37.09
34.41
31.26
27.51
22.97
17.46
10.92
3.47
-4.50
-12.48
-19.82
-25.99
-30.73
-34.16
-36.85
-39.69
-43.53
-48.84
-55.40
-62.25
-67.84
-70.49
-68.89
-62.47
-51.60
-37.41
-21.50
-5.49
9.27
21.82
31.70
38.75
43.10
45.04
44.90
43.09
40.11
36.48
32.76
29.42
26.77
24.87
23.56
22.61
21.84
21.23
20.82
20.63
20.46
19.96
18.74
16.52
13.27
9.21
4.61
-0.26
-5.20
-10.08
-14.83
-19.40
-23.84
-28.28
-32.93
-37.98
-43.50
-49.37
-55.36
-61.17
-66.59
-71.57
-76.24
-80.88
-85.94
-91.83
-98.77
-106.58
-114.51
-121.16
-124.84
-123.94
-117.57
-105.84
-89.91
-71.59
-52.80
-35.00
-18.92
-4.69
7.97
19.35
29.58
38.63
46.43
53.01
58.52
63.23
67.33
70.85
73.68
75.59
76.46
76.37
75.61
74.54
73.49
72.61
71.85
71.05
69.95
68.41
66.37
63.86
61.01
57.96
54.77
51.51
48.10
44.52
40.76
36.92
33.19
29.79
26.92
24.69
23.11
22.14
21.59
21.27
20.89
20.19
18.97
17.10
14.61
11.56
8.15
4.57
1.05
-2.18
-4.96
-7.19
-8.88
-10.16
-11.16
-12.06
-12.99
-14.08
-15.44
-17.11
-19.10
-21.33
-23.62
-25.75
-27.47
-28.55
-28.92
-28.62
-27.87
-27.05
-26.59
-26.89
-28.13
-30.21
-32.79
-35.47
-38.11
-41.01
-44.97
-51.15
-60.63
-73.92
-90.56
-108.88
-126.22
-139.51
-146.06
-144.26
-134.09
-117.14
-96.03
-73.73
-52.58
-33.92
-17.93
-4.02
8.60
20.54
31.95
42.64
52.26
60.51
67.32
72.78
77.06
80.36
82.95
85.17
87.40
90.08
93.43
97.41
101.60
105.33
107.85
108.65
107.64
105.14
101.80
98.38
95.42
93.19
91.55
90.10
88.21
85.25
80.73
74.46
66.59
57.49
47.74
37.89
28.36
19.40
11.09
3.43
-3.56
-9.73
-14.86
-18.72
-21.21
-22.47
-22.89
-23.04
-23.53
-24.80
-26.96
-29.82
-32.88
-35.60
-37.59
-38.73
-39.28
-39.62
-40.18
-41.15
-42.45
-43.79
-44.96
-45.95
-47.08
-48.82
-51.61
-55.56
-60.40
-65.59
-70.57
-74.95
-78.72
-82.09
-85.54
-89.56
-94.66
-101.26
-109.47
-118.83
-128.12
-135.32
-138.05
-134.34
-123.31
-105.61
-83.28
-59.11
-35.80
-15.24
1.75
15.29
26.05
34.82
42.22
48.65
54.28
59.24
63.55
67.29
70.42
72.79
74.15
74.31
73.30
71.48
69.47
67.94
67.34
67.68
68.56
69.39
69.66
69.12
67.83
66.06
64.10
62.20
60.46
58.80
57.09
55.07
52.46
49.07
44.89
40.17
35.27
30.65
26.61
23.20
20.22
17.35
14.31
11.01
7.53
4.18
1.21
-1.25
-3.24
-5.00
-6.78
-8.76
-10.95
-13.21
-15.31
-17.05
-18.41
-19.62
-21.14
-23.57
-27.33
-32.56
-38.94
-45.86
-52.53
-58.43
-63.36
-67.62
-71.89
-77.04
-83.77
-92.43
-102.60
-113.08
-121.90
-126.83
-125.95
-118.25
-104.04
-84.77
-62.66
-40.03
-18.87
-0.56
14.22
25.40
33.46
39.31
44.16
49.19
55.23
62.46
70.45
78.29
85.02
89.95
92.77
93.49
92.22
89.04
84.00
77.38
69.69
61.55
53.41
45.22
36.43
26.43
15.02
2.84
-8.76
-18.13
-24.04
-26.16
-25.04
-21.83
-17.64
-13.30
-9.19
-5.33
-1.68
1.77
4.89
7.48
9.35
10.43
10.84
10.93
11.10
11.63
12.48
13.29
13.43
12.30
9.59
5.43
0.40
-4.82
-9.64
-13.82
-17.54
-21.19
-25.24
-29.99
-35.45
-41.41
-47.48
-53.37
-58.87
-64.00
-69.00
-74.23
-80.18
-87.38
-96.23
-106.75
-118.22
-129.09
-137.07
-139.80
-135.66
-124.51
-107.86
-88.44
-69.26
-52.57
-39.27
-28.95
-20.46
-12.61
-4.73
3.29
11.23
18.83
25.96
32.53
38.43
43.38
47.06
49.32
50.37
50.82
51.53
53.22
56.23
60.38
65.06
69.45
72.86
74.81
75.18
74.12
71.98
69.20
66.20
63.30
60.75
58.64
56.94
55.56
54.39
53.29
52.11
50.74
49.09
47.06
44.58
41.63
38.21
34.42
30.41
26.38
22.53
18.94
15.66
12.61
9.74
6.97
4.21
1.32
-1.93
-5.74
-10.23
-15.26
-20.44
-25.30
-29.50
-33.04
-36.26
-39.67
-43.74
-48.67
-54.29
-60.26
-66.17
-71.74
-76.92
-81.83
-86.77
-92.16
-98.51
-106.32
-115.82
-126.59
-137.33
-145.93
-149.97
-147.45
-137.60
-121.11
-99.96
-76.69
-53.71
-32.64
-14.26
1.30
14.27
25.01
33.96
41.61
48.44
54.83
60.86
66.36
70.96
74.35
76.43
77.42
77.75
77.93
78.34
79.21
80.51
82.07
83.62
84.81
85.33
84.89
83.33
80.68
77.17
73.19
69.14
65.34
61.92
58.80
55.81
52.76
49.57
46.30
43.11
40.17
37.55
35.21
33.06
30.99
28.91
26.80
24.62
22.35
19.93
17.33
14.50
11.41
8.08
4.61
1.11
-2.23
-5.23
-7.79
-10.03
-12.26
-14.93
-18.44
-23.01
-28.57
-34.83
-41.39
-47.90
-54.11
-59.99
-65.71
-71.67
-78.51
-86.85
-96.96
-108.36
-119.53
-128.16
-131.72
-128.34
-117.52
-100.34
-79.15
-56.77
-35.68
-17.45
-2.65
9.01
18.35
26.34
33.78
41.16
48.52
55.56
61.81
66.87
70.55
72.91
74.19
74.67
74.61
74.32
74.12
74.31
75.09
76.33
77.64
78.47
78.37
77.17
75.04
72.29
69.24
65.98
62.43
58.48
54.11
49.52
45.00
40.85
37.22
34.06
31.25
28.68
26.29
24.09
22.10
20.28
18.54
16.77
14.92
12.94
10.83
8.53
6.03
3.33
0.50
-2.38
-5.33
-8.43
-11.80
-15.51
-19.50
-23.60
-27.66
-31.73
-36.08
-41.06
-46.94
-53.67
-60.86
-67.84
-74.04
-79.16
-83.45
-87.54
-92.34
-98.66
-106.88
-116.55
-126.39
-134.36
-138.17
-135.97
-126.92
-111.56
-91.66
-69.66
-47.98
-28.43
-11.85
1.76
12.92
22.29
30.38
37.47
43.70
49.13
53.93
58.21
62.03
65.27
67.69
69.06
69.39
68.99
68.38
68.09
68.35
69.02
69.62
69.59
68.54
66.41
63.44
60.09
56.77
53.77
51.14
48.76
46.39
43.80
40.87
37.64
34.35
31.31
28.79
26.94
25.70
24.84
24.04
22.99
21.49
19.50
17.20
14.84
12.76
11.18
10.09
9.20
8.03
6.06
2.96
-1.29
-6.35
-11.68
-16.76
-21.21
-24.98
-28.20
-31.17
-34.20
-37.46
-40.95
-44.47
-47.67
-50.13
-51.59
-52.10
-52.09
-52.34
-53.77
-57.08
-62.51
-69.50
-76.72
-82.23
-83.93
-80.18
-70.41
-55.32
-36.82
-17.41
0.58
15.62
27.27
35.96
42.46
47.41
51.10
53.47
54.43
54.06
52.66
50.61
48.27
45.88
43.59
41.53
39.86
38.82
38.56
39.10
40.20
41.47
42.43
42.72
42.17
40.86
39.00
36.87
34.73
32.69
30.79
29.01
27.29
25.62
23.90
22.06
19.97
17.54
14.80
11.87
8.94
6.15
3.57
1.10
-1.51
-4.47
-7.93
-11.82
-15.89
-19.78
-23.17
-25.91
-28.10
-30.05
-32.23
-35.09
-38.94
-43.84
-49.55
-55.62
-61.58
-67.04
-71.82
-76.05
-80.08
-84.47
-89.85
-96.67
-105.04
-114.33
-123.09
-129.27
-130.65
-125.61
-113.75
-96.13
-74.96
-52.86
-32.13
-14.12
0.72
12.64
22.14
29.68
35.65
40.41
44.35
47.84
51.14
54.23
56.80
58.47
58.96
58.27
56.73
54.89
53.29
52.32
52.07
52.33
52.76
52.90
52.44
51.24
49.38
47.10
44.67
42.30
40.03
37.76
35.30
32.58
29.67
26.78
24.11
21.75
19.58
17.35
14.87
12.07
9.13
6.24
3.50
0.81
-2.07
-5.37
-9.17
-13.27
-17.36
-21.15
-24.48
-27.38
-30.01
-32.59
-35.34
-38.48
-42.19
-46.62
-51.70
-57.18
-62.63
-67.62
-71.99
-75.92
-80.02
-85.11
-91.96
-100.89
-111.48
-122.53
-132.06
-137.84
-137.95
-131.37
-118.40
-100.64
-80.47
-60.39
-42.28
-27.01
-14.47
-3.89
5.67
14.91
24.07
33.01
41.38
48.86
55.27
60.64
65.02
68.47
71.01
72.70
73.77
74.55
75.42
76.53
77.68
78.39
78.09
76.41
73.44
69.69
65.86
62.54
60.00
58.12
56.52
54.88
53.07
51.19
49.51
48.17
47.14
46.13
44.80
42.89
40.42
37.63
34.78
32.02
29.28
26.27
22.79
18.86
14.82
11.21
8.47
6.67
5.44
4.11
2.02
-1.11
-5.08
-9.27
-12.95
-15.72
-17.65
-19.34
-21.58
-25.07
-30.00
-36.08
-42.59
-48.80
-54.24
-58.90
-63.18
-67.78
-73.40
-80.66
-89.91
-101.00
-113.11
-124.61
-133.24
-136.62
-132.93
-121.67
-103.85
-81.80
-58.43
-36.38
-17.37
-1.96
10.25
20.18
28.79
36.69
44.03
50.61
56.10
60.26
63.17
65.12
66.52
67.69
68.70
69.55
70.18
70.69
71.26
72.02
72.86
73.40
73.18
71.86
69.43
66.22
62.75
59.49
56.68
54.30
52.19
50.14
48.03
45.82
43.50
41.12
38.71
36.36
34.15
32.15
30.36
28.64
26.83
24.78
22.42
19.81
17.10
14.45
12.00
9.73
7.56
5.32
2.79
-0.15
-3.59
-7.46
-11.60
-15.76
-19.69
-23.24
-26.47
-29.65
-33.17
-37.37
-42.36
-47.96
-53.70
-59.03
-63.56
-67.18
-70.20
-73.22
-76.97
-82.15
-89.19
-98.05
-108.03
-117.74
-125.11
-127.96
-124.55
-114.23
-97.75
-77.11
-54.98
-33.84
-15.42
-0.30
11.87
21.89
30.59
38.47
45.71
52.22
57.88
62.58
66.33
69.17
71.13
72.25
72.57
72.24
71.54
70.81
70.36
70.33
70.55
70.59
69.95
68.22
65.34
61.55
57.33
53.19
49.50
46.39
43.77
41.44
39.14
36.71
34.07
31.21
28.22
25.22
22.35
19.73
17.44
15.48
13.81
12.34
10.92
9.42
7.76
5.91
3.97
2.05
0.29
-1.24
-2.54
-3.73
-4.96
-6.42
-8.30
-10.72
-13.69
-17.07
-20.62
-24.07
-27.30
-30.39
-33.60
-37.30
-41.77
-47.01
-52.83
-58.77
-64.36
-69.30
-73.66
-77.85
-82.61
-88.72
-96.66
-106.19
-116.20
-124.71
-129.42
-128.35
-120.52
-106.34
-87.45
-66.25
-45.20
-26.21
-10.33
2.22
11.76
18.97
24.54
29.08
33.05
36.74
40.26
43.57
46.55
49.03
50.87
52.08
52.77
53.13
53.41
53.85
54.55
55.52
56.56
57.39
57.69
57.24
55.95
53.95
51.47
48.80
46.19
43.79
41.65
39.71
37.84
35.91
33.79
31.42
28.82
26.08
23.40
20.93
18.73
16.73
14.74
12.56
10.05
7.24
4.28
1.34
-1.44
-4.12
-6.78
-9.58
-12.62
-15.85
-19.13
-22.29
-25.25
-28.02
-30.79
-33.77
-37.19
-41.15
-45.52
-50.02
-54.17
-57.52
-59.81
-61.08
-61.70
-62.32
-63.76
-66.73
-71.66
-78.38
-85.95
-92.67
-96.39
-95.07
-87.60
-74.14
-56.27
-36.45
-17.22
-0.51
12.82
22.91
30.51
36.52
41.65
46.29
50.57
54.43
57.83
60.71
63.02
64.70
65.68
65.92
65.44
64.46
63.30
62.27
61.55
61.10
60.64
59.80
58.29
56.04
53.28
50.42
47.90
45.97
44.63
43.73
43.13
42.80
42.89
43.59
44.89
46.58
48.20
49.34
49.72
49.35
48.35
46.87
44.89
42.28
38.88
34.67
29.76
24.36
18.72
13.03
7.41
1.98
-3.22
-8.20
-12.98
-17.68
-22.47
-27.57
-33.32
-40.10
-48.29
-58.01
-68.98
-80.50
-91.54
-101.13
-108.59
-113.84
-117.34
-119.95
-122.60
-126.03
-130.62
-136.15
-141.76
-145.97
-146.93
-142.95
-133.01
-117.30
-97.16
-74.81
-52.65
-32.52
-15.42
-1.38
10.18
19.97
28.59
36.35
43.30
49.41
54.64
58.97
62.35
64.68
65.90
66.04
65.35
64.29
63.44
63.30
63.99
65.24
66.41
66.79
65.91
63.69
60.50
56.90
53.43
50.36
47.70
45.27
42.84
40.21
37.27
34.02
30.54
27.02
23.76
21.05
19.06
17.69
16.58
15.18
13.08
10.12
6.48
2.61
-1.03
-4.19
-6.90
-9.41
-11.98
-14.73
-17.60
-20.37
-22.76
-24.67
-26.09
-27.17
-28.14
-29.23
-30.64
-32.54
-35.07
-38.17
-41.67
-45.19
-48.26
-50.62
-52.29
-53.74
-55.76
-59.27
-64.94
-72.95
-82.63
-92.48
-100.39
-104.13
-102.02
-93.52
-79.45
-61.78
-42.94
-25.11
-9.67
2.89
12.79
20.56
26.78
31.91
36.41
40.64
44.91
49.34
53.89
58.32
62.29
65.46
67.63
68.76
69.06
68.81
68.22
67.34
65.98
63.87
60.88
57.07
52.48
46.94
39.86
30.56
18.67
4.77
-9.57
-22.29
-31.57
-36.68
-38.13
-37.26
-35.50
-33.65
-31.86
-29.84
-27.41
-24.75
-22.36
-20.73
-20.02
-19.95
-19.99
-19.62
-18.56
-16.85
-14.85
-13.00
-11.72
-11.24
-11.53
-12.32
-13.18
-13.60
-13.32
-12.36
-11.09
-10.10
-9.94
-10.97
-13.22
-16.41
-20.18
-24.19
-28.34
-32.73
-37.72
-43.78
-51.40
-60.81
-71.75
-83.19
-93.34
-99.96
-101.07
-95.59
-83.78
-67.17
-48.05
-28.68
-10.75
4.92
18.21
29.48
39.33
48.43
57.34
66.37
75.30
83.44
89.80
93.52
94.29
92.53
89.22
85.45
82.10
79.53
77.74
76.50
75.53
74.63
73.53
71.95
69.59
66.27
62.08
57.38
52.67
48.45
45.00
42.34
40.28
38.54
36.93
35.31
33.61
31.80
29.80
27.56
25.04
22.31
19.49
16.71
14.00
11.37
8.79
6.27
3.91
1.84
0.09
-1.38
-2.83
-4.55
-6.76
-9.53
-12.76
-16.19
-19.53
-22.60
-25.38
-28.00
-30.74
-33.93
-37.81
-42.54
-48.00
-53.93
-59.95
-65.67
-70.87
-75.67
-80.55
-86.31
-93.70
-103.01
-113.65
-124.05
-131.84
-134.59
-130.58
-119.38
-102.09
-80.98
-58.76
-37.83
-19.71
-4.95
6.69
15.85
23.23
29.39
34.73
39.55
44.07
48.44
52.70
56.68
60.02
62.30
63.31
63.14
62.29
61.39
61.10
61.67
62.96
64.44
65.50
65.64
64.71
62.87
60.51
58.05
55.78
53.87
52.32
51.06
49.93
48.74
47.30
45.46
43.21
40.71
38.25
36.14
34.48
33.13
31.74
29.89
27.34
24.05
20.23
16.17
12.15
8.28
4.56
0.91
-2.83
-6.74
-10.86
-15.17
-19.55
-23.85
-27.95
-31.82
-35.57
-39.47
-43.82
-48.82
-54.50
-60.68
-66.94
-72.84
-78.07
-82.60
-86.74
-90.99
-96.07
-102.65
-111.11
-121.37
-132.51
-142.80
-149.88
-151.35
-145.48
-131.84
-111.61
-87.19
-61.56
-37.41
-16.47
0.61
14.09
24.71
33.29
40.52
46.89
52.76
58.30
63.60
68.56
72.91
76.31
78.56
79.62
79.77
79.43
79.05
78.94
79.10
79.30
79.18
78.39
76.79
74.44
71.59
68.56
65.69
63.13
60.93
58.98
57.05
54.94
52.47
49.62
46.54
43.45
40.53
37.80
35.04
31.87
27.91
22.96
17.08
10.55
3.65
-3.38
-10.43
-17.36
-23.97
-29.86
-34.70
-38.29
-40.76
-42.53
-44.06
-45.70
-47.46
-49.16
-50.55
-51.55
-52.36
-53.46
-55.30
-58.15
-61.89
-66.03
-69.93
-73.05
-75.24
-76.84
-78.59
-81.42
-86.15
-93.20
-102.29
-112.36
-121.59
-127.70
-128.48
-122.34
-108.91
-89.23
-65.51
-40.50
-16.77
3.96
21.06
34.82
46.04
55.50
63.78
71.08
77.48
82.97
87.68
91.63
94.78
96.98
98.00
97.80
96.56
94.73
92.86
91.34
90.23
89.25
87.91
85.79
82.70
78.72
74.16
69.38
64.68
60.27
56.17
52.37
48.77
45.26
41.77
38.32
35.05
32.13
29.71
27.76
26.06
24.25
21.98
19.09
15.73
12.26
9.07
6.33
3.89
1.31
-1.93
-6.18
-11.45
-17.36
-23.34
-28.85
-33.63
-37.74
-41.55
-45.51
-49.98
-55.10
-60.81
-66.87
-72.97
-78.88
-84.52
-90.09
-96.09
-103.23
-112.13
-122.90
-134.75
-145.86
-153.60
-155.33
-149.25
-135.08
-114.26
-89.42
-63.64
-39.58
-18.87
-2.09
11.05
21.29
29.52
36.51
42.79
48.67
54.26
59.54
64.48
68.99
72.98
76.31
78.80
80.35
81.05
81.17
81.14
81.30
81.72
82.08
81.84
80.47
77.71
73.77
69.25
64.85
61.11
58.22
56.00
54.05
51.98
49.54
46.73
43.69
40.56
37.45
34.35
31.28
28.30
25.61
23.39
21.75
20.57
19.56
18.34
16.59
14.20
11.24
7.94
4.53
1.22
-1.87
-4.71
-7.34
-9.93
-12.70
-15.84
-19.44
-23.34
-27.25
-30.91
-34.28
-37.64
-41.50
-46.35
-52.34
-59.20
-66.26
-72.80
-78.36
-82.99
-87.27
-92.15
-98.61
-107.30
-118.25
-130.70
-142.96
-152.65
-157.19
-154.48
-143.61
-125.32
-101.87
-76.39
-51.92
-30.66
-13.51
-0.25
10.06
18.52
26.02
33.14
40.18
47.19
54.05
60.47
66.07
70.47
73.41
74.89
75.16
74.62
73.75
72.95
72.44
72.18
71.91
71.22
69.72
67.21
63.76
59.71
55.54
51.72
48.55
46.08
44.17
42.52
40.86
39.01
36.91
34.61
32.24
29.92
27.74
25.66
23.53
21.16
18.41
15.28
11.96
8.72
5.85
3.41
1.30
-0.83
-3.32
-6.42
-10.12
-14.20
-18.37
-22.42
-26.35
-30.41
-34.98
-40.39
-46.72
-53.77
-61.08
-68.10
-74.37
-79.66
-83.99
-87.73
-91.50
-96.09
-102.17
-109.95
-118.74
-126.73
-131.31
-129.76
-120.28
-102.75
-78.96
-51.99
-25.16
-1.04
19.12
35.30
48.17
58.56
67.06
74.08
79.98
85.12
89.77
93.96
97.40
99.62
100.26
99.36
97.43
95.32
93.79
93.27
93.62
94.31
94.64
94.09
92.40
89.64
86.05
81.79
77.00
71.72
66.06
60.19
54.39
48.92
43.95
39.55
35.59
31.90
28.30
24.62
20.79
16.73
12.36
7.58
2.31
-3.39
-9.36
-15.29
-20.91
-26.10
-30.91
-35.46
-39.88
-44.09
-47.91
-51.13
-53.72
-55.90
-58.06
-60.63
-63.85
-67.76
-72.14
-76.67
-80.99
-84.85
-88.22
-91.39
-94.99
-99.92
-107.02
-116.65
-128.28
-140.24
-149.95
-154.45
-151.40
-139.79
-120.43
-95.67
-68.69
-42.55
-19.38
-0.09
15.49
28.13
38.74
48.01
56.34
63.88
70.64
76.54
81.46
85.24
87.80
89.15
89.46
89.09
88.44
87.90
87.75
88.00
88.45
88.68
88.25
86.77
84.12
80.49
76.32
72.14
68.34
65.09
62.26
59.54
56.68
53.46
49.89
46.04
42.04
38.01
34.07
30.32
26.86
23.73
20.91
18.28
15.69
13.04
10.29
7.49
4.72
2.00
-0.74
-3.61
-6.80
-10.42
-14.49
-18.86
-23.31
-27.58
-31.55
-35.26
-38.94
-42.93
-47.53
-52.89
-58.94
-65.38
-71.79
-77.72
-82.90
-87.36
-91.48
-95.99
-101.76
-109.54
-119.60
-131.31
-143.05
-152.31
-156.30
-152.78
-140.84
-121.31
-96.61
-70.01
-44.63
-22.64
-4.83
9.14
20.29
29.62
37.85
45.32
52.11
58.28
63.92
69.06
73.66
77.53
80.43
82.20
82.88
82.74
82.19
81.65
81.39
81.37
81.26
80.55
78.82
75.90
72.02
67.75
63.69
60.28
57.53
55.12
52.56
49.49
45.78
41.58
37.19
32.96
29.21
26.08
23.59
21.52
19.47
16.98
13.65
9.35
4.24
-1.29
-6.73
-11.68
-15.99
-19.77
-23.48
-27.70
-32.95
-39.51
-47.15
-55.32
-63.33
-70.66
-77.26
-83.52
-90.17
-97.99
-107.49
-118.59
-130.39
-141.07
-148.21
-149.35
-142.75
-128.14
-106.95
-81.95
-56.32
-32.70
-12.58
3.81
17.07
28.09
37.60
46.09
53.77
60.79
67.15
72.83
77.64
81.30
83.58
84.45
84.14
83.11
81.87
80.87
80.32
80.14
80.02
79.53
78.29
76.12
73.09
69.47
65.72
62.22
59.23
56.80
54.79
52.93
51.02
48.87
46.42
43.69
40.73
37.67
34.64
31.78
29.21
26.94
24.85
22.73
20.39
17.68
14.63
11.39
8.10
4.80
1.44
-2.14
-6.05
-10.23
-14.52
-18.72
-22.77
-26.93
-31.57
-37.02
-43.26
-49.83
-56.06
-61.41
-65.84
-69.88
-74.35
-79.99
-86.99
-94.92
-102.94
-110.19
-116.16
-120.89
-124.89
-128.99
-134.15
-141.14
-150.28
-161.01
-171.74
-179.88
-182.49
-177.13
-162.86
-140.63
-113.06
-83.64
-55.58
-31.03
-10.77
5.59
19.07
30.77
41.56
51.91
62.00
71.70
80.67
88.46
94.60
98.80
101.06
101.67
101.21
100.35
99.66
99.49
99.82
100.33
100.48
99.76
97.86
94.73
90.68
86.21
81.91
78.25
75.42
73.31
71.60
69.85
67.70
64.97
61.73
58.18
54.59
51.19
48.13
45.44
43.03
40.74
38.42
35.90
33.08
29.97
26.68
23.39
20.23
17.24
14.28
11.12
7.56
3.51
-0.90
-5.40
-9.63
-13.37
-16.65
-19.74
-23.10
-27.16
-32.12
-37.86
-44.00
-50.05
-55.54
-60.26
-64.31
-68.09
-72.26
-77.60
-84.73
-93.88
-104.48
-115.10
-123.51
-127.25
-124.33
-113.92
-96.72
-74.75
-50.84
-27.75
-7.58
8.67
20.99
30.16
37.17
42.89
47.88
52.36
56.30
59.62
62.26
64.26
65.67
66.51
66.78
66.50
65.78
64.87
64.13
63.84
64.03
64.41
64.42
63.47
61.23
57.75
53.47
49.05
45.08
41.90
39.46
37.48
35.58
33.49
31.06
28.37
25.62
22.95
20.46
18.07
15.60
12.85
9.80
6.58
3.45
0.64
-1.79
-4.00
-6.29
-8.93
-12.02
-15.47
-19.10
-22.69
-26.14
-29.44
-32.70
-36.06
-39.66
-43.62
-48.01
-52.78
-57.78
-62.75
-67.47
-71.86
-76.08
-80.63
-86.17
-93.44
-102.80
-113.87
-125.40
-135.21
-140.68
-139.53
-130.60
-114.38
-92.95
-69.35
-46.59
-26.81
-10.84
1.66
11.65
20.15
27.81
34.87
41.31
47.15
52.41
57.10
61.10
64.08
65.74
65.94
64.95
63.37
61.98
61.36
61.64
62.47
63.20
63.20
62.11
59.97
57.14
54.11
51.32
48.95
46.97
45.11
43.05
40.49
37.22
33.23
28.62
23.65
18.72
14.28
10.64
7.93
6.03
4.54
2.99
1.05
-1.36
-4.08
-6.87
-9.57
-12.29
-15.30
-18.94
-23.38
-28.48
-33.92
-39.29
-44.33
-49.03
-53.63
-58.41
-63.57
-68.98
-74.30
-79.04
-82.82
-85.51
-87.26
-88.47
-89.70
-91.54
-94.59
-99.21
-105.31
-111.98
-117.47
-119.47
-115.84
-105.39
-88.46
-66.90
-43.42
-20.69
-0.61
16.02
29.32
39.87
48.29
55.01
60.33
64.53
67.89
70.70
73.12
75.15
76.66
77.48
77.54
76.93
75.92
74.88
74.21
74.14
74.64
75.36
75.75
75.20
73.38
70.30
66.37
62.19
58.32
55.02
52.20
49.48
46.46
42.91
38.86
34.59
30.52
26.95
24.00
21.53
19.24
16.79
14.03
11.01
7.89
4.84
1.85
-1.28
-4.80
-8.87
-13.43
-18.21
-22.90
-27.27
-31.27
-35.08
-38.95
-43.15
-47.85
-53.10
-58.80
-64.66
-70.31
-75.39
-79.67
-83.27
-86.70
-90.79
-96.43
-104.14
-113.74
-124.10
-133.26
-138.80
-138.57
-131.29
-117.11
-97.55
-75.08
-52.45
-31.88
-14.66
-1.04
9.51
17.90
25.01
31.52
37.87
44.24
50.65
56.94
62.77
67.61
71.00
72.64
72.67
71.61
70.20
69.14
68.76
68.96
69.27
69.16
68.27
66.57
64.29
61.72
59.09
56.45
53.80
51.16
48.60
46.23
44.11
42.21
40.38
38.50
36.54
34.61
32.91
31.54
30.42
29.24
27.58
25.12
21.80
17.88
13.82
10.05
6.81
4.00
1.36
-1.41
-4.44
-7.66
-10.86
-13.85
-16.52
-18.95
-21.30
-23.80
-26.74
-30.38
-34.92
-40.39
-46.52
-52.75
-58.44
-63.14
-66.86
-70.14
-73.92
-79.16
-86.47
-95.70
-105.88
-115.19
-121.40
-122.37
-116.71
-104.25
-86.24
-65.01
-43.33
-23.61
-7.26
5.44
15.09
22.67
28.99
34.53
39.47
43.79
47.61
51.09
54.44
57.68
60.66
63.06
64.62
65.34
65.49
65.61
66.14
67.32
68.93
70.46
71.22
70.62
68.39
64.69
60.07
55.26
50.99
47.65
45.26
43.50
41.80
39.70
36.87
33.25
28.95
24.13
18.92
13.45
7.88
2.48
-2.42
-6.48
-9.56
-11.75
-13.38
-14.88
-16.72
-19.16
-22.27
-25.88
-29.73
-33.49
-37.03
-40.36
-43.76
-47.63
-52.38
-58.27
-65.26
-72.96
-80.68
-87.61
-93.14
-96.98
-99.45
-101.37
-103.92
-108.26
-115.03
-123.94
-133.60
-141.74
-145.77
-143.56
-134.16
-118.10
-97.28
-74.29
-51.73
-31.53
-14.63
-1.04
9.82
18.82
26.74
34.13
41.28
48.27
54.92
60.99
66.10
69.95
72.35
73.44
73.59
73.35
73.33
73.89
75.11
76.79
78.51
79.89
80.63
80.68
80.16
79.33
78.46
77.75
77.15
76.41
75.18
73.18
70.38
67.03
63.54
60.29
57.41
54.77
52.01
48.86
45.20
41.12
36.89
32.75
28.84
25.14
21.51
17.73
13.62
9.09
4.16
-0.98
-6.05
-10.77
-14.95
-18.60
-21.94
-25.36
-29.25
-33.85
-39.10
-44.71
-50.27
-55.45
-60.13
-64.50
-69.06
-74.39
-81.05
-89.35
-99.05
-109.21
-118.16
-123.79
-124.04
-117.57
-104.28
-85.47
-63.53
-41.18
-20.79
-3.77
9.60
19.84
27.89
34.63
40.61
46.02
50.80
54.84
58.14
60.76
62.78
64.18
64.85
64.70
63.78
62.42
61.08
60.13
59.72
59.60
59.28
58.31
56.50
54.01
51.25
48.67
46.51
44.78
43.24
41.57
39.53
37.01
34.09
30.99
28.01
25.42
23.42
22.03
21.10
20.31
19.23
17.51
14.99
11.77
8.22
4.78
1.84
-0.51
-2.44
-4.36
-6.75
-9.91
-13.86
-18.35
-22.90
-27.08
-30.66
-33.77
-36.87
-40.53
-45.21
-51.00
-57.58
-64.32
-70.61
-76.07
-80.82
-85.37
-90.52
-97.08
-105.53
-115.77
-126.85
-136.97
-143.73
-144.82
-138.76
-125.49
-106.41
-84.03
-61.05
-39.66
-21.09
-5.56
7.34
18.25
27.79
36.38
44.29
51.60
58.29
64.19
69.11
72.85
75.36
76.75
77.30
77.37
77.35
77.50
77.91
78.47
78.93
78.94
78.22
76.62
74.17
71.09
67.70
64.33
61.19
58.36
55.70
53.01
50.13
47.04
43.92
41.02
38.55
36.51
34.71
32.85
30.68
28.11
25.19
22.08
18.95
15.91
12.98
10.20
7.62
5.29
3.24
1.40
-0.36
-2.22
-4.33
-6.84
-9.87
-13.43
-17.45
-21.70
-25.89
-29.78
-33.30
-36.72
-40.49
-45.11
-50.83
-57.55
-64.74
-71.77
-78.12
-83.65
-88.73
-94.09
-100.62
-108.92
-119.02
-130.08
-140.41
-147.76
-149.87
-145.17
-133.23
-115.00
-92.45
-68.12
-44.32
-22.74
-4.21
11.16
23.76
34.13
42.81
50.25
56.82
62.69
67.91
72.41
76.08
78.86
80.80
82.02
82.69
82.91
82.78
82.39
81.83
81.20
80.49
79.54
78.12
76.06
73.34
70.18
66.93
63.91
61.24
58.86
56.58
54.18
51.54
48.66
45.64
42.61
39.72
37.07
34.73
32.65
30.66
28.58
26.25
23.61
20.74
17.79
14.93
12.23
9.67
7.14
4.52
1.71
-1.33
-4.69
-8.40
-12.44
-16.70
-20.96
-24.95
-28.49
-31.62
-34.67
-38.17
-42.60
-48.20
-54.86
-62.06
-69.16
-75.62
-81.30
-86.51
-91.99
-98.63
-107.12
-117.55
-129.16
-140.23
-148.46
-151.51
-147.69
-136.58
-119.14
-97.43
-74.02
-51.20
-30.60
-12.94
1.77
13.97
24.26
33.24
41.38
49.00
56.22
62.99
69.11
74.32
78.39
81.14
82.57
82.90
82.48
81.82
81.40
81.50
82.05
82.67
82.75
81.76
79.49
76.12
72.16
68.20
64.69
61.79
59.39
57.16
54.80
52.12
49.10
45.84
42.47
39.08
35.70
32.32
28.94
25.57
22.29
19.09
15.96
12.79
9.55
6.25
3.03
0.10
-2.43
-4.50
-6.18
-7.64
-9.04
-10.58
-12.46
-14.83
-17.77
-21.14
-24.66
-28.01
-30.97
-33.63
-36.42
-39.88
-44.43
-50.11
-56.54
-63.11
-69.24
-74.65
-79.49
-84.25
-89.63
-96.33
-104.84
-115.17
-126.57
-137.43
-145.42
-148.04
-143.38
-130.93
-111.79
-88.47
-64.04
-41.20
-21.56
-5.55
7.30
17.79
26.66
34.38
41.20
47.30
52.85
57.98
62.69
66.87
70.29
72.77
74.26
74.91
75.01
74.86
74.70
74.64
74.57
74.27
73.47
71.94
69.67
66.88
63.94
61.26
59.13
57.59
56.44
55.31
53.88
51.94
49.46
46.56
43.44
40.29
37.27
34.52
32.08
29.91
27.87
25.71
23.22
20.25
16.84
13.13
9.35
5.71
2.31
-0.91
-4.10
-7.44
-11.01
-14.79
-18.63
-22.38
-25.95
-29.41
-33.01
-36.99
-41.55
-46.72
-52.34
-58.18
-64.01
-69.70
-75.14
-80.29
-85.21
-90.18
-95.70
-102.43
-110.73
-120.20
-129.44
-136.07
-137.45
-131.62
-118.12
-98.21
-74.51
-50.14
-27.67
-8.55
6.91
19.26
29.34
37.87
45.29
51.78
57.42
62.28
66.41
69.88
72.60
74.42
75.14
74.72
73.34
71.43
69.59
68.28
67.71
67.69
67.74
67.25
65.74
63.03
59.31
55.02
50.74
46.94
43.85
41.42
39.33
37.19
34.73
31.96
29.07
26.44
24.37
22.93
21.97
21.18
20.24
18.94
17.24
15.16
12.72
9.95
6.85
3.47
-0.04
-3.45
-6.53
-9.13
-11.25
-13.12
-15.05
-17.38
-20.25
-23.60
-27.14
-30.52
-33.48
-36.01
-38.35
-40.93
-44.20
-48.43
-53.60
-59.40
-65.31
-70.85
-75.73
-79.95
-83.84
-87.94
-92.95
-99.52
-107.96
-117.95
-128.28
-136.84
-141.03
-138.55
-128.26
-110.75
-88.25
-63.92
-40.80
-20.92
-4.94
7.60
17.67
26.17
33.62
40.20
45.95
50.88
55.07
58.56
61.30
63.15
63.98
63.85
63.05
62.02
61.20
60.81
60.82
61.00
61.05
60.65
59.63
57.88
55.44
52.48
49.34
46.49
44.36
43.17
42.81
42.88
42.88
42.45
41.52
40.27
39.02
37.95
37.09
36.27
35.28
33.97
32.25
30.14
27.69
24.98
22.11
19.20
16.38
13.68
11.04
8.27
5.10
1.32
-3.12
-8.08
-13.28
-18.33
-22.97
-27.14
-31.06
-35.18
-39.95
-45.60
-52.03
-58.77
-65.22
-70.94
-75.85
-80.30
-85.02
-90.88
-98.62
-108.48
-119.99
-131.71
-141.39
-146.42
-144.57
-134.76
-117.53
-95.02
-70.24
-46.25
-25.21
-8.07
5.35
15.92
24.57
32.04
38.73
44.82
50.36
55.40
59.95
63.95
67.27
69.76
71.34
72.10
72.26
72.16
72.11
72.30
72.71
73.16
73.36
73.02
71.95
70.12
67.67
64.91
62.15
59.65
57.48
55.53
53.55
51.31
48.69
45.78
42.77
39.87
37.20
34.72
32.38
30.06
27.73
25.39
23.06
20.75
18.41
16.02
13.53
11.01
8.52
6.18
4.03
2.03
0.06
-2.07
-4.56
-7.55
-11.10
-15.06
-19.25
-23.41
-27.35
-31.05
-34.72
-38.72
-43.43
-49.03
-55.37
-62.01
-68.34
-73.96
-78.75
-83.04
-87.45
-92.70
-99.44
-107.99
-118.15
-128.96
-138.68
-144.95
-145.41
-138.48
-123.98
-103.41
-79.47
-55.27
-33.43
-15.43
-1.52
9.02
17.31
24.45
31.15
37.73
44.11
50.04
55.18
59.26
62.19
64.06
65.17
65.87
66.49
67.23
68.16
69.23
70.34
71.30
71.89
71.86
71.02
69.34
67.02
64.38
61.80
59.48
57.41
55.38
53.08
50.39
47.35
44.23
41.39
39.10
37.48
36.38
35.47
34.27
32.34
29.43
25.60
21.21
16.81
12.80
9.33
6.19
2.90
-0.97
-5.66
-11.07
-16.84
-22.46
-27.55
-31.97
-35.93
-39.82
-44.15
-49.26
-55.25
-61.84
-68.56
-74.88
-80.49
-85.46
-90.30
-95.81
-102.82
-111.83
-122.69
-134.34
-144.88
-151.83
-152.84
-146.34
-132.20
-111.82
-87.78
-63.03
-40.00
-20.04
-3.32
10.79
23.13
34.35
44.66
54.04
62.36
69.54
75.58
80.47
84.18
86.68
88.08
88.63
88.71
88.77
89.16
90.02
91.22
92.41
93.08
92.82
91.38
88.85
85.54
81.85
78.14
74.44
70.61
66.36
61.50
56.00
49.98
43.69
37.35
31.15
25.21
19.58
14.32
9.44
4.92
0.78
-2.96
-6.27
-9.14
-11.55
-13.50
-14.99
-16.01
-16.53
-16.58
-16.27
-15.85
-15.60
-15.81
-16.64
-18.02
-19.74
-21.46
-22.91
-24.09
-25.29
-27.07
-30.00
-34.42
-40.18
-46.73
-53.36
-59.50
-64.98
-70.08
-75.37
-81.57
-89.34
-99.09
-110.75
-123.50
-135.59
-144.53
-147.63
-142.95
-130.03
-110.22
-86.32
-61.60
-38.78
-19.33
-3.43
9.66
20.91
31.09
40.59
49.41
57.42
64.42
70.25
74.77
77.94
79.80
80.53
80.45
79.93
79.34
78.93
78.82
78.95
79.14
79.08
78.40
76.85
74.34
71.02
67.24
63.46
60.03
57.11
54.60
52.31
50.05
47.78
45.58
43.55
41.62
39.56
37.06
33.92
30.24
26.38
22.83
19.92
17.68
15.87
14.15
12.38
10.63
9.24
8.50
8.50
8.99
9.40
9.07
7.51
4.58
0.55
-3.95
-8.19
-11.57
-13.86
-15.41
-16.99
-19.72
-24.53
-31.89
-41.54
-52.55
-63.63
-73.61
-81.84
-88.38
-93.91
-99.44
-105.85
-113.52
-121.98
-129.92
-135.34
-136.10
-130.63
-118.41
-100.35
-78.47
-55.33
-33.26
-13.84
2.35
15.45
26.02
34.73
42.16
48.74
54.73
60.20
65.05
69.05
71.98
73.73
74.36
74.10
73.22
72.01
70.73
69.58
68.69
68.03
67.41
66.42
64.68
61.98
58.48
54.66
51.12
48.30
46.26
44.69
43.09
41.01
38.29
35.11
31.89
29.06
26.86
25.33
24.25
23.33
22.29
20.97
19.33
17.46
15.49
13.58
11.78
10.04
8.23
6.22
3.87
1.22
-1.60
-4.38
-6.97
-9.35
-11.75
-14.51
-17.88
-21.90
-26.33
-30.74
-34.83
-38.52
-42.06
-45.81
-50.07
-54.83
-59.82
-64.68
-69.13
-73.06
-76.59
-80.02
-83.79
-88.47
-94.67
-102.76
-112.49
-122.72
-131.37
-135.87
-133.93
-124.33
-107.35
-84.85
-59.73
-35.19
-13.98
2.27
13.20
19.65
23.18
25.58
28.34
32.36
37.87
44.57
51.88
59.07
65.50
70.62
74.12
76.00
76.58
76.42
76.16
76.24
76.81
77.64
78.24
78.04
76.66
73.99
70.29
66.10
62.00
58.45
55.60
53.26
51.02
48.41
45.14
41.16
36.62
31.85
27.18
22.96
19.46
16.87
15.22
14.33
13.83
13.23
12.13
10.34
7.96
5.31
2.75
0.50
-1.36
-2.97
-4.48
-6.09
-7.96
-10.21
-12.98
-16.30
-20.13
-24.30
-28.57
-32.72
-36.70
-40.68
-44.94
-49.73
-55.07
-60.67
-66.03
-70.71
-74.57
-77.89
-81.36
-85.88
-92.23
-100.87
-111.58
-123.35
-134.36
-142.23
-144.60
-139.97
-128.29
-111.26
-91.79
-73.09
-57.62
-46.27
-38.45
-32.54
-26.77
-19.88
-11.42
-1.65
8.86
19.44
29.55
38.75
46.65
52.97
57.59
60.62
62.49
63.81
65.27
67.32
70.05
73.08
75.70
77.11
76.76
74.51
70.79
66.41
62.28
59.11
57.12
56.02
55.21
54.09
52.39
50.28
48.22
46.65
45.71
45.17
44.48
43.12
40.77
37.43
33.40
29.09
24.87
20.99
17.52
14.43
11.53
8.59
5.35
1.66
-2.54
-7.17
-12.13
-17.45
-23.25
-29.71
-36.94
-44.87
-53.20
-61.51
-69.38
-76.55
-83.01
-89.12
-95.53
-103.11
-112.71
-124.66
-138.47
-152.52
-164.29
-170.99
-170.38
-161.54
-145.23
-123.60
-99.51
-75.63
-53.84
-35.01
-19.13
-5.64
6.16
16.91
27.01
36.60
45.58
53.68
60.59
66.10
70.09
72.59
73.69
73.59
72.62
71.20
69.82
68.87
68.45
68.29
67.96
67.09
65.64
64.02
62.88
62.77
63.91
66.01
68.49
70.69
72.09
72.43
71.61
69.68
66.74
63.01
58.87
54.88
51.62
49.45
48.37
47.95
47.47
46.33
44.25
41.46
38.51
36.04
34.40
33.54
33.01
32.21
30.60
27.92
24.14
19.42
13.93
7.73
0.73
-7.26
-16.38
-26.52
-37.21
-47.71
-57.21
-65.18
-71.57
-76.90
-82.04
-87.96
-95.40
-104.67
-115.47
-126.80
-137.00
-143.99
-145.64
-140.42
-127.96
-109.30
-86.68
-62.91
-40.58
-21.46
-6.21
5.50
14.55
21.97
28.54
34.70
40.51
45.82
50.40
54.04
56.64
58.14
58.60
58.20
57.36
56.62
56.62
57.74
60.05
63.13
66.28
68.77
70.03
69.89
68.48
66.22
63.56
60.84
58.12
55.16
51.41
46.28
39.41
30.91
21.47
12.13
3.95
-2.37
-6.59
-8.94
-9.87
-9.88
-9.29
-8.34
-7.14
-5.86
-4.74
-4.11
-4.29
-5.50
-7.69
-10.46
-13.23
-15.40
-16.65
-17.19
-17.66
-18.96
-21.81
-26.48
-32.71
-39.81
-47.06
-53.95
-60.43
-66.85
-73.86
-82.17
-92.34
-104.43
-117.77
-130.80
-141.17
-146.24
-143.87
-133.15
-114.89
-91.41
-65.85
-41.25
-19.75
-2.23
11.52
22.39
31.44
39.56
47.30
54.84
62.10
68.85
74.75
79.50
82.84
84.67
85.06
84.33
82.99
81.66
80.88
80.89
81.43
81.80
81.19
78.97
75.05
69.82
63.97
58.10
52.58
47.53
42.97
39.02
35.88
33.76
32.64
32.25
32.14
31.89
31.24
30.23
29.02
27.80
26.67
25.63
24.64
23.62
22.46
21.03
19.17
16.80
13.99
10.99
8.17
5.82
3.96
2.27
0.15
-2.92
-7.20
-12.48
-18.21
-23.76
-28.69
-32.91
-36.71
-40.55
-44.85
-49.80
-55.31
-61.03
-66.58
-71.73
-76.51
-81.28
-86.62
-93.21
-101.56
-111.84
-123.60
-135.64
-145.94
-152.06
-151.70
-143.49
-127.64
-105.95
-81.32
-56.79
-34.66
-15.95
-0.55
12.26
23.21
32.70
40.81
47.55
53.12
57.89
62.26
66.34
69.83
72.17
72.83
71.71
69.28
66.51
64.52
64.09
65.43
68.09
71.23
73.95
75.58
75.86
74.90
73.18
71.33
70.09
69.97
71.04
72.75
74.00
73.46
70.12
63.75
55.02
45.25
35.87
27.88
21.57
16.69
12.80
9.56
6.89
4.88
3.68
3.29
3.58
4.39
5.50
6.67
7.57
7.73
6.63
3.83
-0.87
-7.24
-14.71
-22.48
-29.78
-36.15
-41.51
-46.14
-50.43
-54.77
-59.33
-64.14
-69.14
-74.33
-79.82
-85.95
-93.17
-101.95
-112.52
-124.45
-136.43
-146.31
-151.52
-149.88
-140.41
-123.79
-102.14
-78.43
-55.47
-35.21
-18.47
-5.05
5.84
15.16
23.67
31.81
39.68
47.12
53.82
59.46
63.85
66.95
68.86
69.75
69.80
69.26
68.41
67.57
66.98
66.62
66.24
65.41
63.76
61.17
57.85
54.19
50.65
47.49
44.78
42.40
40.17
37.93
35.55
33.04
30.46
28.00
25.93
24.46
23.61
23.23
22.98
22.52
21.70
20.58
19.42
18.43
17.64
16.93
16.08
14.94
13.59
12.26
11.09
9.99
8.53
6.14
2.39
-2.78
-8.93
-15.32
-21.20
-26.03
-29.71
-32.49
-34.80
-37.13
-39.87
-43.25
-47.31
-51.99
-56.98
-61.95
-66.53
-70.55
-74.19
-77.99
-82.79
-89.32
-97.82
-107.60
-116.95
-123.40
-124.50
-118.61
-105.61
-87.03
-65.57
-44.23
-25.36
-10.14
1.47
10.30
17.36
23.44
28.98
34.09
38.81
43.10
46.97
50.34
53.09
55.07
56.24
56.63
56.45
55.99
55.62
55.68
56.39
57.71
59.35
60.74
61.30
60.57
58.45
55.21
51.36
47.42
43.73
40.38
37.29
34.35
31.50
28.77
26.27
24.08
22.28
20.85
19.73
18.76
17.68
16.24
14.22
11.60
8.60
5.59
2.95
0.89
-0.69
-2.14
-3.93
-6.43
-9.68
-13.45
-17.35
-20.99
-24.19
-27.04
-29.85
-33.06
-37.00
-41.81
-47.36
-53.30
-59.12
-64.39
-68.88
-72.69
-76.19
-80.04
-84.98
-91.59
-100.04
-109.75
-119.31
-126.60
-129.28
-125.54
-114.69
-97.51
-76.04
-52.96
-30.80
-11.35
4.62
17.21
27.05
34.95
41.67
47.77
53.53
58.99
63.96
68.18
71.44
73.62
74.79
75.12
74.91
74.41
73.73
72.86
71.53
69.39
66.02
61.24
55.17
48.28
41.28
34.91
29.72
25.94
23.55
22.30
21.88
21.98
22.35
22.82
23.26
23.67
24.06
24.52
25.10
25.79
26.50
27.01
27.09
26.53
25.25
23.41
21.27
19.19
17.33
15.64
13.81
11.43
8.20
4.13
-0.47
-5.14
-9.45
-13.33
-17.02
-21.02
-25.82
-31.68
-38.48
-45.73
-52.82
-59.22
-64.75
-69.72
-74.81
-80.90
-88.73
-98.54
-109.76
-120.93
-129.90
-134.32
-132.28
-122.99
-107.13
-86.69
-64.43
-42.99
-24.24
-8.88
3.36
13.33
21.92
29.72
37.05
43.99
50.62
57.00
63.18
69.00
74.07
77.87
79.91
80.04
78.55
76.18
73.81
72.18
71.49
71.38
71.09
69.84
67.23
63.26
58.23
52.44
46.00
38.87
31.09
22.83
14.30
5.52
-3.85
-14.30
-26.04
-38.59
-50.71
-60.96
-68.43
-73.39
-77.34
-82.45
-90.55
-102.38
-117.44
-134.56
-152.93
-172.74
-195.11
-221.28
-251.34
-283.42
-313.66
-337.45
-351.17
-353.85
-347.71
-337.21
-327.17
-320.66
-317.86
-316.21
-311.82
-301.22
-282.68
-256.50
-224.35
-188.31
-149.84
-109.58
-67.54
-23.66
21.95
69.09
117.92
169.35
224.75
285.03
349.39
414.33
473.95
521.42
551.29
561.53
554.20
534.48
508.47
481.11
454.80
429.58
404.17
377.22
348.09
316.99
284.72
252.30
220.74
191.01
163.88
139.87
119.18
101.62
86.74
73.83
62.06
50.57
38.65
25.97
12.69
-0.56
-12.99
-24.14
-34.13
-43.70
-53.81
-65.21
-77.93
-91.27
-104.09
-115.34
-124.48
-131.64
-137.40
-142.22
-146.07
-148.25
-147.65
-143.24
-134.63
-122.24
-107.21
-90.95
-74.73
-59.42
-45.42
-32.81
-21.38
-10.75
-0.33
10.55
22.36
35.09
48.23
60.79
71.80
80.59
87.06
91.51
94.41
96.09
96.73
96.50
95.63
94.49
93.25
91.46
87.84
80.48
67.49
47.89
22.28
-6.97
-36.32
-61.98
-81.07
-92.34
-96.39
-95.32
-92.05
-89.44
-89.64
-93.60
-100.96
-110.02
-118.09
-121.88
-118.36
-105.69
-84.07
-56.08
-26.19
0.39
19.31
28.36
28.03
21.09
11.41
2.56
-3.29
-6.02
-7.35
-10.30
-18.17
-33.25
-55.73
-83.26
-111.32
-134.68
-149.32
-154.02
-150.65
-142.95
-134.36
-126.05
-116.18
-101.01
-77.13
-43.63
-3.10
39.18
77.20
106.39
125.00
134.12
136.55
135.34
132.66
129.30
125.05
119.43
112.48
105.16
99.15
96.11
96.96
101.35
107.71
113.74
116.85
114.41
103.69
82.07
48.07
2.89
-48.29
-96.60
-131.98
-146.91
-139.75
-115.48
-83.40
-52.86
-29.49
-13.80
-2.76
7.21
17.65
27.43
34.20
36.29
33.84
28.45
21.64
13.55
2.79
-12.65
-33.58
-58.28
-82.36
-100.28
-107.67
-103.53
-90.98
-76.24
-66.26
-66.19
-77.88
-99.95
-129.17
-161.94
-195.11
-226.00
-251.89
-269.84
-277.26
-272.72
-256.54
-230.64
-197.77
-160.93
-123.11
-87.72
-58.78
-40.41
-35.50
-44.01
-62.09
-82.66
-97.45
-99.63
-86.01
-57.60
-18.61
25.35
68.98
108.38
141.14
166.11
183.18
193.17
197.87
199.78
201.67
205.69
212.59
221.18
228.37
229.97
221.95
201.81
169.55
127.91
81.79
37.05
-1.11
-29.52
-47.78
-57.95
-63.39
-67.35
-71.80
-77.12
-82.60
-87.33
-90.99
-93.95
-96.95
-100.47
-104.45
-108.38
-111.59
-113.37
-112.77
-108.34
-98.20
-80.87
-56.26
-26.22
5.73
35.69
60.84
80.34
94.86
105.41
112.01
113.39
107.85
94.61
75.02
52.42
31.07
14.64
5.10
2.68
6.74
16.72
32.45
53.61
78.76
104.90
128.17
145.43
155.88
161.47
165.83
172.16
181.42
191.73
199.26
200.03
191.29
172.01
142.59
104.33
59.46
11.40
-35.19
-75.31
-105.04
-123.02
-130.72
-131.53
-129.11
-126.02
-123.25
-120.62
-117.42
-112.77
-105.72
-95.20
-80.35
-61.06
-38.39
-14.33
8.73
28.96
45.50
58.36
67.80
73.85
76.12
74.17
67.90
57.86
45.02
30.45
15.03
-0.49
-15.03
-27.02
-34.50
-35.92
-31.15
-22.01
-12.11
-5.68
-6.04
-14.28
-28.83
-46.00
-61.43
-71.42
-73.99
-69.01
-57.94
-43.08
-27.03
-12.11
0.16
9.52
17.34
26.38
39.75
59.39
84.66
111.96
135.84
151.43
156.98
155.20
152.17
154.65
166.63
187.22
210.83
229.24
234.63
221.79
189.37
140.12
80.53
20.02
-30.77
-62.40
-69.49
-52.56
-17.96
24.39
64.50
95.37
114.07
120.86
117.26
104.59
83.70
55.70
22.79
-11.86
-44.99
-74.37
-99.35
-120.57
-139.28
-156.44
-172.44
-187.17
-200.47
-212.08
-221.36
-226.80
-225.80
-214.97
-191.15
-152.73
-100.69
-38.99
26.05
87.09
137.63
173.58
194.04
200.94
197.59
186.87
169.90
146.09
114.43
75.39
32.09
-10.02
-44.93
-68.30
-78.71
-77.47
-67.11
-49.96
-27.47
-0.76
28.36
56.83
80.85
97.25
104.76
104.56
99.61
93.30
88.09
84.78
82.62
80.02
75.52
68.33
58.59
47.10
34.91
22.84
11.30
0.12
-11.24
-23.51
-37.25
-52.64
-69.36
-86.62
-103.39
-118.75
-132.16
-143.74
-154.29
-164.94
-176.65
-189.43
-201.70
-210.09
-210.07
-197.24
-169.09
-126.38
-73.47
-17.37
34.38
75.79
104.06
119.70
125.45
124.74
120.10
112.44
101.10
84.56
61.55
32.17
-1.23
-33.89
-59.46
-71.81
-67.24
-46.05
-12.75
25.33
60.53
87.16
102.78
107.94
104.95
96.39
84.24
69.83
54.25
38.74
24.69
13.22
4.84
-0.88
-5.12
-9.20
-13.96
-19.34
-24.33
-27.53
-27.96
-25.76
-22.34
-19.83
-20.10
-23.91
-30.46
-37.88
-44.03
-47.41
-47.76
-45.80
-42.79
-39.79
-37.26
-34.98
-32.39
-29.01
-24.60
-19.31
-13.47
-7.54
-1.99
2.67
6.05
7.92
8.33
7.59
6.12
4.19
1.77
-1.39
-5.68
-11.29
-18.11
-25.70
-33.42
-40.60
-46.57
-50.82
-53.07
-53.53
-53.13
-53.37
-55.88
-61.64
-70.40
-80.49
-89.34
-94.35
-93.85
-87.59
-76.61
-62.69
-47.59
-32.74
-19.07
-7.37
1.57
7.04
8.74
7.04
3.15
-1.30
-4.95
-7.16
-8.19
-8.67
-8.91
-8.73
-7.82
-6.61
-6.90
-11.65
-23.76
-44.58
-73.03
-105.80
-138.57
-167.51
-190.12
-205.15
-211.94
-209.74
-197.88
-176.28
-146.16
-110.06
-71.27
-32.91
2.88
35.08
63.51
88.17
108.84
124.97
136.01
141.89
143.22
141.20
137.17
132.08
126.00
118.10
106.94
90.89
68.82
40.40
6.36
-31.55
-70.65
-107.60
-138.93
-161.75
-174.56
-177.77
-173.56
-165.14
-155.60
-146.98
-139.78
-133.38
-126.59
-118.48
-108.52
-96.64
-82.86
-67.24
-49.89
-31.27
-12.19
6.34
23.35
38.24
50.75
60.86
68.54
73.64
75.82
74.66
69.92
61.73
50.78
38.29
25.73
14.58
5.98
0.70
-0.82
1.66
8.24
18.67
32.20
47.58
63.16
77.26
88.50
96.08
99.73
99.76
96.80
91.76
85.57
79.01
72.54
66.17
59.57
52.33
44.20
35.30
26.10
17.14
8.82
1.21
-5.91
-12.84
-19.66
-26.10
-31.53
-35.14
-36.24
-34.42
-29.62
-22.16
-12.59
-1.74
9.33
19.34
26.95
31.02
30.96
26.99
20.08
11.70
3.20
-4.62
-11.66
-18.26
-24.59
-30.07
-33.40
-32.94
-27.61
-17.54
-4.25
9.90
22.67
32.75
40.10
45.58
50.28
54.75
58.77
61.51
62.06
59.87
54.98
47.98
39.59
30.51
21.37
12.89
6.15
2.53
3.12
7.80
14.70
20.24
20.25
11.61
-6.30
-31.15
-58.39
-82.90
-100.63
-109.68
-110.37
-104.63
-95.02
-84.04
-73.61
-64.96
-58.54
-54.08
-50.79
-47.77
-44.47
-40.95
-37.80
-35.84
-35.63
-37.24
-40.21
-43.96
-48.06
-52.48
-57.41
-63.01
-69.07
-74.93
-79.53
-81.63
-79.90
-73.02
-59.77
-39.38
-11.98
20.96
56.63
91.41
121.94
145.92
162.60
172.46
176.44
175.28
169.29
158.65
143.97
126.56
108.34
91.16
76.21
63.45
51.78
39.43
24.79
7.31
-12.08
-30.99
-46.34
-55.74
-58.65
-56.91
-54.12
-53.98
-58.58
-67.54
-78.42
-88.14
-94.27
-95.40
-90.62
-79.11
-60.46
-35.98
-9.57
13.03
26.53
28.75
21.78
10.65
0.25
-7.37
-13.48
-20.63
-29.58
-37.48
-38.99
-29.47
-8.39
19.28
44.93
60.13
60.46
47.28
26.82
7.12
-5.44
-8.45
-3.67
4.81
13.12
19.60
24.94
30.84
38.09
45.24
49.04
46.15
35.21
17.97
-1.20
-17.25
-26.75
-29.35
-27.72
-26.07
-28.01
-34.80
-44.80
-54.13
-58.23
-53.60
-39.03
-15.94
12.16
40.81
65.87
84.54
95.90
100.94
101.90
101.08
99.48
95.78
86.38
66.96
34.84
-8.91
-58.91
-107.16
-146.21
-172.31
-186.58
-193.65
-198.48
-203.36
-206.84
-205.14
-194.80
-174.93
-147.64
-116.66
-85.27
-54.83
-24.69
6.69
40.27
75.50
110.28
141.82
167.86
187.46
201.34
211.27
219.19
226.13
231.70
234.01
230.35
218.13
195.89
163.90
124.21
80.13
35.50
-6.03
-41.47
-68.65
-86.29
-94.02
-92.51
-83.56
-69.78
-54.10
-39.01
-25.98
-15.19
-5.76
3.75
15.01
29.53
48.36
71.53
97.53
123.12
143.95
156.11
157.84
150.60
138.69
127.59
121.70
122.69
129.09
137.42
144.00
146.67
145.34
141.58
137.25
133.34
129.33
123.58
114.21
100.07
81.08
57.99
31.90
3.89
-24.59
-51.50
-74.10
-89.63
-96.59
-95.66
-89.58
-82.00
-75.72
-71.46
-67.95
-63.11
-55.55
-45.58
-34.97
-25.86
-19.56
-15.97
-13.81
-11.49
-7.92
-2.82
3.44
10.25
17.30
24.58
32.16
39.83
46.90
52.24
54.67
53.42
48.47
40.54
30.94
21.21
12.88
7.29
5.44
7.84
14.29
23.77
34.61
44.79
52.50
56.57
56.58
52.70
45.26
34.53
20.75
4.47
-13.10
-30.02
-43.94
-52.87
-55.90
-53.59
-47.77
-40.77
-34.71
-31.06
-30.53
-33.27
-39.19
-47.82
-58.34
-69.44
-79.56
-87.31
-91.78
-92.82
-90.80
-86.33
-79.95
-71.95
-62.47
-51.51
-39.28
-26.17
-12.89
-0.37
10.33
18.21
22.55
23.12
20.40
15.44
9.75
4.82
1.60
0.27
0.05
-0.28
-1.87
-5.13
-9.52
-13.78
-16.52
-16.99
-15.41
-12.99
-11.38
-12.12
-16.14
-23.69
-34.55
-48.47
-65.58
-86.41
-111.70
-141.69
-175.72
-211.94
-247.64
-279.84
-306.00
-324.51
-334.78
-336.97
-331.65
-319.42
-300.84
-276.33
-246.43
-211.67
-172.62
-130.02
-85.05
-39.73
2.84
38.89
64.83
78.56
80.49
73.71
63.11
53.64
48.56
48.43
51.35
54.23
54.48
51.06
44.67
36.86
29.03
21.61
14.06
5.37
-5.09
-17.06
-29.56
-41.37
-51.82
-61.24
-70.88
-82.21
-96.06
-111.96
-128.14
-142.29
-152.78
-159.48
-163.93
-168.48
-174.90
-183.23
-191.53
-196.76
-196.16
-188.51
-174.47
-156.12
-135.79
-115.15
-94.76
-74.26
-52.96
-30.25
-5.74
20.95
50.33
82.97
119.16
158.19
198.10
235.61
266.97
288.98
300.16
301.15
294.51
283.71
271.95
261.20
251.85
243.08
233.50
221.88
207.55
190.49
171.19
150.44
129.27
108.88
90.59
75.48
64.06
56.01
50.31
45.72
41.40
37.28
34.16
33.24
35.58
41.57
50.73
61.86
73.31
83.33
90.48
93.85
93.32
89.56
83.72
77.05
70.25
63.21
55.08
44.70
31.21
14.57
-4.43
-24.32
-43.33
-59.56
-71.17
-76.39
-73.81
-62.78
-43.98
-19.49
7.57
33.84
56.73
74.89
88.27
97.62
103.82
107.58
109.35
109.57
108.69
107.11
104.94
101.82
97.03
89.91
80.23
68.42
55.53
42.82
31.29
21.45
13.31
6.64
1.15
-3.33
-6.98
-9.94
-12.49
-14.88
-17.17
-19.24
-20.78
-21.54
-21.50
-20.96
-20.37
-20.06
-20.08
-20.09
-19.60
-18.19
-15.78
-12.76
-9.74
-7.28
-5.65
-4.68
-3.92
-2.88
-1.33
0.65
2.73
4.58
6.10
7.39
8.66
10.11
11.79
13.70
15.90
18.53
21.69
25.25
28.76
31.46
32.62
31.72
28.70
23.94
18.13
12.12
6.52
1.68
-2.54
-6.60
-11.17
-16.98
-24.73
-35.21
-49.35
-68.06
-91.84
-120.31
-151.92
-184.18
-214.32
-240.09
-260.12
-273.67
-280.15
-278.73
-268.59
-249.69
-223.53
-193.19
-162.47
-134.47
-110.40
-89.34
-69.20
-48.15
-25.74
-2.92
18.94
39.32
59.19
80.51
104.72
131.29
157.08
177.12
186.33
181.49
162.48
132.29
96.00
59.32
27.19
3.11
-11.04
-14.70
-8.35
6.70
28.33
53.52
78.51
99.37
112.60
116.04
109.22
93.62
72.13
48.30
25.51
6.30
-7.95
-17.04
-21.71
-23.39
-23.76
-24.39
-26.41
-30.31
-35.82
-42.15
-48.27
-53.29
-56.83
-59.12
-60.92
-63.25
-66.96
-72.57
-80.23
-89.82
-101.12
-113.83
-127.62
-141.92
-155.94
-168.58
-178.55
-184.60
-185.63
-180.93
-170.28
-154.14
-133.61
-110.22
-85.54
-60.64
-35.84
-10.74
15.22
42.10
69.00
94.18
115.63
131.81
142.29
147.60
148.81
146.78
141.96
134.53
124.91
114.27
104.44
97.43
94.63
96.30
101.55
108.85
116.69
124.14
130.81
136.50
140.87
143.37
143.59
141.69
138.54
135.46
133.53
132.87
132.60
131.12
126.98
119.60
109.62
98.65
88.62
81.03
76.33
73.96
72.63
70.97
67.99
63.35
57.20
49.79
41.23
31.31
19.71
6.37
-8.33
-23.39
-37.46
-49.09
-57.23
-61.38
-61.80
-59.48
-55.91
-52.92
-52.19
-55.01
-62.00
-73.11
-87.58
-104.14
-121.04
-136.24
-147.72
-153.83
-153.72
-147.42
-135.65
-119.44
-99.82
-77.78
-54.43
-31.23
-9.92
7.73
20.51
28.09
31.09
30.78
28.73
26.45
25.29
26.36
30.50
38.03
48.65
61.30
74.30
85.72
93.80
97.37
96.09
90.35
81.01
68.93
54.67
38.54
20.91
2.61
-14.95
-30.02
-41.13
-47.65
-49.98
-49.16
-46.27
-41.89
-36.06
-28.62
-19.79
-10.40
-1.84
4.40
7.23
6.20
1.52
-6.17
-16.04
-27.29
-39.24
-51.34
-63.13
-74.20
-84.23
-92.88
-99.76
-104.21
-105.29
-101.94
-93.24
-78.94
-59.78
-37.55
-14.72
6.15
23.12
35.27
42.75
46.57
48.08
48.56
48.85
49.25
49.60
49.50
48.73
47.57
46.81
47.58
50.76
56.53
64.09
71.84
77.84
80.51
79.07
73.49
64.25
51.76
36.32
18.25
-1.55
-21.34
-38.79
-51.73
-59.02
-61.02
-59.27
-55.57
-51.03
-45.77
-39.28
-31.36
-22.71
-15.06
-10.44
-10.45
-15.71
-25.95
-40.55
-59.04
-81.23
-107.11
-136.20
-167.28
-198.18
-226.04
-247.83
-261.03
-264.19
-257.40
-242.24
-221.33
-197.63
-173.67
-151.01
-130.03
-110.27
-90.79
-70.81
-50.01
-28.61
-7.29
13.16
32.13
49.41
65.06
79.24
91.88
102.60
110.91
116.52
119.71
121.24
122.15
123.34
125.22
127.68
130.25
132.39
133.70
134.02
133.42
132.04
129.98
127.11
123.06
117.40
109.86
100.58
90.10
79.10
67.98
56.64
44.38
30.38
14.14
-4.17
-23.70
-43.16
-61.06
-75.89
-86.20
-90.76
-88.79
-80.32
-66.36
-48.71
-29.49
-10.61
6.57
21.36
33.51
43.03
50.03
54.74
57.51
58.87
59.59
60.57
62.66
66.35
71.46
77.05
81.65
83.92
83.32
80.41
76.70
73.86
72.97
74.09
76.45
79.01
80.95
81.87
81.57
79.70
75.64
68.72
58.52
45.22
29.66
13.24
-2.42
-15.93
-26.44
-33.92
-39.20
-43.63
-48.54
-54.54
-61.08
-66.48
-68.50
-65.38
-56.63
-43.41
-28.07
-13.28
-1.01
7.92
13.79
17.36
19.23
19.48
17.71
13.53
6.87
-1.75
-11.38
-20.95
-29.55
-36.59
-41.79
-45.04
-46.35
-45.86
-43.81
-40.62
-36.76
-32.68
-28.67
-24.82
-21.10
-17.48
-14.14
-11.45
-10.00
-10.40
-13.11
-18.28
-25.65
-34.54
-43.75
-51.66
-56.58
-57.07
-52.55
-43.43
-31.07
-17.30
-3.84
8.13
18.02
25.62
30.90
33.91
34.93
34.67
34.13
34.38
36.02
39.01
42.69
46.23
49.04
51.00
52.34
53.38
54.21
54.71
54.70
54.09
53.00
51.64
50.17
48.56
46.60
44.04
40.77
36.94
32.91
29.15
26.11
24.04
23.06
23.16
24.26
26.23
28.85
31.74
34.32
36.00
36.25
34.94
32.33
29.01
25.67
22.79
20.52
18.67
16.88
14.70
11.55
6.67
-0.95
-12.27
-27.71
-46.60
-67.05
-86.22
-101.22
-110.09
-112.42
-109.37
-102.96
-95.22
-87.54
-80.56
-74.45
-69.48
-66.23
-65.51
-67.87
-73.12
-80.10
-86.83
-91.04
-90.83
-85.26
-74.53
-59.95
-43.46
-27.11
-12.43
-0.19
9.72
17.87
24.93
31.23
36.71
41.04
43.92
45.37
45.84
45.95
46.20
46.68
47.03
46.75
45.51
43.40
40.96
38.86
37.61
37.31
37.59
37.82
37.29
35.44
31.78
26.00
18.05
8.31
-2.31
-12.41
-20.62
-25.98
-28.35
-28.33
-26.91
-24.94
-22.78
-20.28
-16.95
-12.46
-6.83
-0.53
5.66
10.85
14.31
15.68
15.05
12.99
10.34
7.88
6.08
4.78
3.26
0.39
-4.99
-13.61
-25.48
-39.72
-54.79
-68.96
-80.77
-89.50
-95.29
-98.98
-101.82
-104.93
-108.89
-113.38
-117.06
-117.86
-113.54
-102.52
-84.51
-60.77
-33.72
-6.23
19.22
41.04
58.58
71.83
81.05
86.32
87.41
83.75
74.71
60.13
40.87
19.03
-2.29
-19.86
-31.40
-36.31
-35.58
-31.14
-24.78
-17.53
-9.68
-1.31
7.16
14.89
21.02
25.33
28.54
32.08
37.41
45.24
55.11
65.51
74.59
80.87
83.71
83.20
79.66
73.09
63.00
48.79
30.46
9.32
-12.06
-30.51
-43.46
-49.90
-50.67
-47.76
-43.25
-38.39
-33.33
-27.61
-20.88
-13.38
-5.89
0.72
5.98
9.95
12.90
14.92
15.67
14.48
10.81
4.64
-3.48
-12.80
-22.89
-34.03
-47.05
-62.72
-80.85
-99.78
-116.61
-128.03
-131.63
-126.78
-114.89
-98.80
-81.69
-66.05
-53.19
-43.30
-35.87
-30.22
-25.76
-22.03
-18.68
-15.35
-11.79
-7.91
-3.85
0.05
3.39
5.91
7.61
8.78
9.86
11.34
13.49
16.27
19.39
22.44
25.09
27.25
29.07
30.94
33.31
36.59
41.09
46.77
53.25
59.77
65.44
69.48
71.53
71.68
70.44
68.42
66.08
63.54
60.72
57.35
53.29
48.54
43.33
37.93
32.64
27.65
23.05
18.77
14.65
10.43
5.92
1.06
-4.09
-9.38
-14.61
-19.64
-24.45
-29.17
-34.10
-39.64
-46.14
-53.82
-62.43
-71.13
-78.49
-82.66
-81.96
-75.42
-63.23
-46.80
-28.39
-10.40
5.34
17.97
27.57
34.80
40.41
44.85
48.25
50.48
51.38
50.81
48.67
44.77
38.98
31.36
22.38
12.97
4.35
-2.38
-6.64
-8.49
-8.59
-7.80
-6.79
-5.82
-4.77
-3.37
-1.49
0.86
3.50
6.41
9.70
13.66
18.52
24.25
30.41
36.32
41.29
44.88
47.03
47.91
47.73
46.50
44.02
40.07
34.63
28.07
21.06
14.38
8.51
3.55
-0.86
-5.31
-10.39
-16.59
-24.18
-33.30
-43.87
-55.58
-67.80
-79.69
-90.44
-99.53
-107.00
-113.31
-119.06
-124.38
-128.60
-130.21
-127.32
-118.43
-102.99
-81.81
-56.81
-30.56
-5.47
16.72
35.23
50.18
62.23
72.09
80.26
86.82
91.65
94.60
95.67
95.12
93.36
90.82
87.80
84.42
80.61
76.29
71.43
66.18
60.86
55.85
51.46
47.70
44.33
40.92
37.09
32.69
27.89
23.02
18.36
13.98
9.76
5.60
1.54
-2.15
-5.12
-7.13
-8.18
-8.58
-8.72
-9.04
-9.78
-11.00
-12.57
-14.25
-15.78
-16.89
-17.49
-17.60
-17.43
-17.24
-17.24
-17.60
-18.29
-19.28
-20.47
-21.79
-23.24
-24.89
-26.91
-29.47
-32.75
-36.75
-41.30
-46.13
-50.94
-55.60
-60.21
-65.11
-70.75
-77.60
-85.87
-95.35
-105.20
-113.87
-119.34
-119.62
-113.40
-100.60
-82.54
-61.54
-40.20
-20.63
-3.94
9.72
20.84
30.08
37.96
44.76
50.60
55.59
59.87
63.56
66.71
69.31
71.32
72.79
73.91
74.93
76.10
77.50
79.04
80.49
81.68
82.52
83.06
83.41
83.59
83.54
83.16
82.39
81.27
79.85
78.13
75.97
73.13
69.42
64.88
59.79
54.60
49.72
45.21
40.86
36.24
30.97
24.96
18.47
11.99
5.98
0.62
-4.34
-9.45
-15.34
-22.43
-30.63
-39.36
-47.61
-54.41
-59.12
-61.75
-62.89
-63.44
-64.21
-65.63
-67.65
-69.95
-72.25
-74.44
-76.66
-79.20
-82.35
-86.30
-91.20
-97.06
-103.57
-109.90
-114.59
-115.79
-111.74
-101.46
-85.15
-64.25
-41.04
-17.93
3.10
20.99
35.46
46.83
55.53
61.87
65.98
67.97
68.11
67.03
65.59
64.58
64.44
65.16
66.31
67.31
67.62
66.86
64.70
60.91
55.32
48.07
39.71
31.16
23.45
17.40
13.32
11.00
9.87
9.28
8.77
8.13
7.41
6.80
6.48
6.61
7.18
8.06
9.04
9.88
10.38
10.43
10.05
9.29
8.22
6.89
5.21
3.06
0.24
-3.29
-7.43
-11.91
-16.38
-20.55
-24.44
-28.30
-32.51
-37.36
-42.81
-48.47
-53.77
-58.24
-61.71
-64.42
-66.90
-69.75
-73.50
-78.48
-84.78
-92.14
-99.85
-106.59
-110.64
-110.18
-103.89
-91.56
-74.24
-54.06
-33.48
-14.59
1.44
14.42
24.80
33.19
40.06
45.62
50.01
53.46
56.32
58.95
61.50
63.76
65.36
65.93
65.42
64.23
63.02
62.45
62.88
64.20
65.93
67.41
68.08
67.64
66.17
64.03
61.68
59.54
57.84
56.61
55.66
54.74
53.62
52.13
50.20
47.81
45.00
41.84
38.45
34.98
31.55
28.19
24.73
20.79
15.82
9.20
0.50
-10.23
-22.34
-34.58
-45.46
-53.76
-59.00
-61.59
-62.63
-63.40
-64.84
-67.23
-70.27
-73.37
-76.11
-78.47
-80.79
-83.66
-87.66
-93.20
-100.46
-109.34
-119.30
-129.25
-137.48
-141.93
-140.71
-132.73
-118.24
-98.87
-77.12
-55.59
-36.17
-19.57
-5.45
7.17
19.26
31.37
43.39
54.75
64.72
72.69
78.35
81.74
83.13
82.95
81.72
79.95
78.14
76.66
75.74
75.38
75.33
75.19
74.52
72.98
70.44
67.06
63.23
59.40
55.99
53.18
50.80
48.54
46.03
43.14
40.00
36.93
34.26
32.11
30.36
28.62
26.50
23.77
20.38
16.55
12.60
8.85
5.48
2.54
-0.06
-2.50
-4.97
-7.61
-10.52
-13.66
-16.88
-19.99
-22.81
-25.29
-27.53
-29.79
-32.37
-35.50
-39.22
-43.35
-47.60
-51.67
-55.45
-59.14
-63.17
-68.12
-74.44
-82.14
-90.51
-98.07
-102.83
-102.88
-97.10
-85.61
-69.83
-52.01
-34.52
-19.02
-6.28
3.83
11.83
18.22
23.25
26.96
29.37
30.60
30.90
30.59
29.93
29.07
28.13
27.24
26.61
26.52
27.23
28.86
31.34
34.37
37.50
40.29
42.41
43.75
44.41
44.63
44.72
44.90
45.25
45.68
45.96
45.81
45.04
43.58
41.57
39.29
37.10
35.26
33.87
32.82
31.82
30.56
28.74
26.26
23.26
20.05
17.08
14.68
13.02
11.94
11.10
10.09
8.58
6.44
3.73
0.63
-2.64
-5.89
-8.97
-11.78
-14.29
-16.59
-18.97
-21.91
-25.92
-31.40
-38.50
-46.97
-56.33
-65.92
-75.20
-83.87
-91.90
-99.57
-107.33
-115.73
-125.18
-135.75
-146.81
-156.95
-164.05
-165.88
-160.83
-148.52
-130.04
-107.64
-83.96
-61.21
-40.71
-22.71
-6.78
7.73
21.24
33.86
45.37
55.43
63.76
70.26
75.03
78.30
80.29
81.20
81.14
80.21
78.61
76.64
74.67
72.99
71.67
70.50
69.12
67.19
64.64
61.72
58.88
56.56
55.05
54.35
54.23
54.32
54.30
53.93
53.17
52.10
50.94
49.91
49.21
48.94
49.05
49.35
49.56
49.36
48.49
46.76
44.21
41.04
37.62
34.38
31.62
29.44
27.69
26.10
24.37
22.28
19.71
16.73
13.49
10.22
7.14
4.39
1.93
-0.45
-3.07
-6.16
-9.71
-13.48
-17.08
-20.21
-22.87
-25.41
-28.33
-32.06
-36.73
-42.13
-47.79
-53.23
-58.11
-62.35
-66.10
-69.68
-73.47
-77.95
-83.53
-90.51
-98.78
-107.58
-115.48
-120.54
-120.87
-115.28
-103.79
-87.71
-69.20
-50.55
-33.45
-18.69
-6.20
4.50
13.90
22.26
29.63
36.05
41.65
46.64
51.18
55.30
58.84
61.56
63.22
63.77
63.36
62.27
60.88
59.50
58.28
57.21
56.15
54.92
53.42
51.64
49.68
47.72
45.87
44.22
42.72
41.30
39.82
38.18
36.31
34.20
31.97
29.75
27.67
25.78
24.03
22.25
20.28
18.00
15.46
12.83
10.32
8.15
6.36
4.81
3.21
1.20
-1.49
-4.93
-8.96
-13.31
-17.73
-22.16
-26.73
-31.70
-37.18
-43.11
-49.14
-54.83
-59.86
-64.19
-68.11
-72.11
-76.79
-82.63
-89.87
-98.32
-107.21
-115.16
-120.36
-121.09
-116.22
-105.68
-90.53
-72.62
-54.04
-36.51
-21.06
-7.98
2.90
12.00
19.74
26.50
32.56
38.16
43.35
48.08
52.21
55.61
58.24
60.16
61.48
62.27
62.57
62.42
61.90
61.17
60.40
59.65
58.83
57.75
56.23
54.21
51.82
49.24
46.68
44.22
41.88
39.68
37.72
36.09
34.85
33.90
33.11
32.32
31.48
30.62
29.80
29.02
28.21
27.26
26.16
24.94
23.71
22.49
21.22
19.76
18.04
16.10
14.18
12.55
11.35
10.53
9.75
8.59
6.71
3.98
0.60
-3.00
-6.35
-9.17
-11.48
-13.66
-16.29
-19.92
-24.84
-30.90
-37.64
-44.39
-50.66
-56.23
-61.26
-66.19
-71.57
-77.91
-85.49
-94.16
-103.17
-111.11
-116.15
-116.53
-111.15
-100.02
-84.44
-66.48
-48.45
-32.19
-18.70
-8.10
0.00
6.32
11.50
16.10
20.48
24.88
29.30
33.55
37.30
40.16
41.84
42.30
41.78
40.75
39.73
39.09
38.96
39.13
39.29
39.08
38.31
36.94
35.11
32.99
30.73
28.46
26.19
24.01
21.93
20.01
18.27
16.69
15.23
13.78
12.33
10.84
9.31
7.78
6.24
4.65
2.96
1.12
-0.89
-3.09
-5.48
-8.10
-10.95
-14.06
-17.39
-20.88
-24.48
-28.17
-32.03
-36.12
-40.56
-45.33
-50.32
-55.28
-59.91
-63.99
-67.50
-70.78
-74.41
-79.07
-85.29
-93.08
-101.75
-109.91
-115.73
-117.43
-113.83
-104.77
-91.14
-74.67
-57.37
-40.94
-26.45
-14.19
-3.84
5.19
13.46
21.36
29.03
36.44
43.40
49.69
55.06
59.31
62.39
64.37
65.55
66.33
67.16
68.37
70.06
72.08
74.00
75.33
75.66
74.88
73.14
70.88
68.55
66.52
64.90
63.58
62.32
60.80
58.81
56.26
53.27
50.06
46.96
44.30
42.27
40.88
39.91
39.00
37.79
36.02
33.66
30.87
27.90
24.97
22.18
19.45
16.65
13.63
10.39
7.02
3.71
0.57
-2.41
-5.41
-8.68
-12.41
-16.59
-20.97
-25.14
-28.70
-31.49
-33.67
-35.70
-38.17
-41.53
-45.94
-51.13
-56.66
-62.03
-66.95
-71.41
-75.71
-80.35
-85.85
-92.69
-101.01
-110.41
-119.75
-127.21
-130.73
-128.61
-120.18
-106.08
-88.15
-68.73
-50.03
-33.49
-19.66
-8.33
1.12
9.39
17.03
24.37
31.47
38.20
44.25
49.35
53.33
56.17
58.03
59.10
59.59
59.71
59.66
59.65
59.88
60.39
61.05
61.57
61.65
61.13
60.11
58.87
57.79
57.12
56.94
57.08
57.28
57.26
56.82
55.82
54.23
52.02
49.24
46.01
42.58
39.23
36.17
33.49
31.09
28.75
26.31
23.74
21.16
18.85
17.04
15.81
14.95
13.99
12.18
8.75
3.05
-5.17
-15.69
-27.92
-41.11
-54.57
-67.86
-80.73
-92.94
-104.13
-113.80
-121.43
-126.71
-129.62
-130.50
-129.87
-128.25
-126.14
-124.02
-122.43
-121.84
-122.38
-123.58
-124.12
-122.16
-115.90
-104.31
-87.60
-67.21
-45.27
-23.82
-4.27
12.82
27.55
40.27
51.30
60.79
68.87
75.72
81.56
86.56
90.65
93.39
94.14
92.20
87.22
79.42
69.67
59.33
49.80
42.17
36.88
33.69
32.04
31.31
31.14
31.40
32.13
33.27
34.65
36.03
37.23
38.23
39.12
40.06
41.12
42.24
43.31
44.25
45.06
45.77
46.43
46.99
47.24
46.85
45.46
42.84
39.01
34.27
29.20
24.43
20.45
17.46
15.34
13.74
12.35
11.00
9.78
8.90
8.44
8.31
8.12
7.42
5.90
3.59
0.85
-1.79
-3.86
-5.17
-5.78
-5.97
-6.09
-6.48
-7.40
-9.04
-11.43
-14.52
-18.13
-22.06
-26.20
-30.64
-35.69
-41.78
-49.27
-58.07
-67.49
-76.10
-82.11
-83.81
-80.19
-71.37
-58.54
-43.63
-28.60
-14.98
-3.64
5.20
11.66
16.10
19.04
21.13
23.11
25.58
28.78
32.40
35.76
38.00
38.51
37.17
34.33
30.78
27.47
25.24
24.68
25.92
28.60
31.97
35.06
36.96
37.09
35.34
32.07
27.95
23.70
19.86
16.67
14.06
11.86
9.90
8.23
7.05
6.68
7.33
8.96
11.23
13.61
15.64
17.00
17.68
17.89
17.89
17.91
18.04
18.30
18.76
19.55
20.80
22.51
24.38
25.86
26.28
25.07
22.03
17.36
11.57
5.24
-1.19
-7.55
-13.92
-20.50
-27.44
-34.70
-42.06
-49.14
-55.60
-61.20
-65.93
-70.07
-74.18
-78.92
-84.89
-92.28
-100.63
-108.70
-114.63
-116.44
-112.65
-102.92
-88.19
-70.45
-52.08
-35.13
-20.76
-9.18
0.15
8.03
15.16
22.01
28.70
35.17
41.23
46.63
51.10
54.41
56.45
57.27
57.08
56.26
55.21
54.38
54.08
54.43
55.31
56.38
57.11
57.07
56.04
54.14
51.82
49.64
48.01
47.01
46.35
45.55
44.20
42.14
39.53
36.70
33.98
31.54
29.43
27.62
26.07
24.78
23.62
22.35
20.71
18.46
15.59
12.34
9.09
6.15
3.65
1.45
-0.72
-3.18
-6.11
-9.47
-13.09
-16.72
-20.17
-23.35
-26.33
-29.23
-32.18
-35.26
-38.49
-41.89
-45.44
-49.15
-52.99
-56.84
-60.59
-64.11
-67.43
-70.80
-74.64
-79.30
-84.78
-90.48
-95.21
-97.54
-96.21
-90.74
-81.55
-69.86
-57.29
-45.32
-34.99
-26.65
-20.15
-14.92
-10.27
-5.55
-0.29
5.64
12.05
18.50
24.55
29.92
34.59
38.64
42.15
45.02
47.08
48.25
48.76
49.09
49.79
51.19
53.17
55.19
56.56
56.70
55.45
53.02
49.88
46.53
43.27
40.22
37.30
34.35
31.23
27.84
24.16
20.16
15.81
11.04
5.75
-0.08
-6.40
-13.02
-19.71
-26.28
-32.65
-38.83
-44.89
-50.84
-56.58
-61.97
-66.92
-71.55
-76.18
-81.37
-87.62
-95.14
-103.56
-111.87
-118.57
-121.98
-120.85
-114.69
-103.99
-90.09
-74.79
-59.79
-46.26
-34.66
-24.76
-15.89
-7.37
1.31
10.28
19.31
27.99
35.82
42.38
47.47
51.09
53.44
54.86
55.67
56.09
56.18
55.89
55.14
53.92
52.34
50.57
48.82
47.25
45.92
44.87
44.08
43.49
43.09
42.78
42.48
42.06
41.42
40.52
39.45
38.41
37.60
37.17
37.08
37.11
36.91
36.18
34.72
32.57
29.90
27.00
24.13
21.49
19.21
17.32
15.78
14.48
13.27
12.06
10.82
9.58
8.35
7.14
5.83
4.18
2.00
-0.85
-4.38
-8.48
-13.02
-18.01
-23.53
-29.68
-36.44
-43.56
-50.56
-56.88
-62.14
-66.39
-70.16
-74.33
-79.87
-87.38
-96.82
-107.26
-116.94
-123.70
-125.51
-121.08
-110.32
-94.40
-75.42
-55.77
-37.51
-21.92
-9.36
0.50
8.42
15.20
21.50
27.75
34.07
40.40
46.48
51.93
56.39
59.58
61.49
62.31
62.44
62.35
62.44
62.94
63.85
64.96
65.91
66.30
65.81
64.18
61.38
57.60
53.20
48.72
44.65
41.35
38.91
37.17
35.78
34.41
32.80
30.88
28.77
26.69
24.82
23.27
22.04
21.07
20.24
19.48
18.76
18.07
17.34
16.48
15.37
13.87
11.88
9.39
6.42
3.04
-0.68
-4.66
-8.73
-12.65
-16.12
-18.89
-20.94
-22.54
-24.24
-26.64
-30.19
-34.92
-40.46
-46.17
-51.36
-55.64
-59.09
-62.22
-65.82
-70.63
-77.06
-84.87
-93.06
-99.98
-103.65
-102.35
-95.11
-82.10
-64.69
-45.04
-25.47
-7.87
6.74
18.22
27.13
34.26
40.39
46.01
51.34
56.35
60.85
64.59
67.32
68.87
69.17
68.34
66.67
64.57
62.50
60.80
59.65
58.93
58.29
57.27
55.46
52.71
49.17
45.26
41.46
38.16
35.47
33.28
31.31
29.30
27.13
24.85
22.65
20.77
19.40
18.63
18.42
18.64
19.07
19.45
19.58
19.37
18.88
18.33
18.02
18.18
18.82
19.69
20.38
20.44
19.58
17.78
15.20
12.10
8.69
5.08
1.23
-2.87
-7.25
-11.88
-16.69
-21.66
-26.80
-32.16
-37.74
-43.48
-49.26
-54.93
-60.36
-65.43
-70.10
-74.41
-78.52
-82.70
-87.34
-92.83
-99.38
-106.79
-114.27
-120.55
-124.10
-123.66
-118.65
-109.37
-96.94
-82.92
-68.90
-56.10
-45.28
-36.66
-30.06
-24.90
-20.44
-15.96
-10.99
-5.42
0.44
6.14
11.35
16.09
20.71
25.67
31.30
37.63
44.36
51.03
57.23
62.74
67.49
71.52
74.79
77.19
78.60
79.01
78.56
77.59
76.52
75.64
75.00
74.44
73.66
72.37
70.49
68.06
65.17
61.88
58.14
53.88
49.04
43.66
37.85
31.69
25.30
18.79
12.33
6.17
0.65
-3.99
-7.65
-10.45
-12.69
-14.67
-16.61
-18.50
-20.21
-21.59
-22.62
-23.51
-24.61
-26.37
-29.04
-32.61
-36.78
-41.01
-44.76
-47.70
-49.91
-51.86
-54.35
-58.25
-64.16
-72.07
-81.09
-89.54
-95.30
-96.47
-91.93
-81.79
-67.27
-50.35
-33.12
-17.26
-3.76
7.05
15.34
21.54
26.20
29.83
32.89
35.69
38.42
41.09
43.65
45.98
47.90
49.21
49.76
49.53
48.70
47.64
46.82
46.57
46.94
47.63
48.14
47.98
46.89
44.96
42.53
40.02
37.73
35.78
34.09
32.48
30.75
28.89
26.94
25.13
23.63
22.54
21.75
21.00
19.99
18.48
16.44
14.05
11.55
9.16
6.92
4.72
2.41
-0.13
-2.89
-5.75
-8.53
-11.11
-13.47
-15.67
-17.88
-20.21
-22.70
-25.30
-27.79
-29.98
-31.71
-33.07
-34.41
-36.24
-38.97
-42.81
-47.56
-52.73
-57.82
-62.45
-66.56
-70.36
-74.25
-78.65
-83.92
-90.27
-97.63
-105.43
-112.52
-117.20
-117.64
-112.47
-101.28
-84.94
-65.38
-45.02
-26.03
-9.85
3.03
12.88
20.40
26.40
31.62
36.56
41.54
46.59
51.49
55.89
59.35
61.59
62.62
62.65
62.08
61.30
60.57
59.98
59.48
58.90
58.08
56.92
55.39
53.54
51.50
49.46
47.55
45.86
44.41
43.08
41.75
40.26
38.55
36.66
34.71
32.89
31.30
29.95
28.77
27.63
26.41
25.03
23.45
21.63
19.58
17.31
14.89
12.42
10.04
7.83
5.75
3.65
1.33
-1.43
-4.70
-8.42
-12.38
-16.33
-20.09
-23.69
-27.29
-31.19
-35.60
-40.57
-45.89
-51.16
-55.99
-60.20
-63.87
-67.36
-71.24
-76.12
-82.49
-90.52
-99.80
-109.21
-116.98
-121.00
-119.45
-111.50
-97.65
-79.70
-60.18
-41.55
-25.47
-12.54
-2.39
5.83
12.99
19.64
25.93
31.76
36.93
41.29
44.73
47.27
48.94
49.81
50.04
49.81
49.34
48.93
48.83
49.17
49.96
50.99
51.93
52.46
52.38
51.73
50.76
49.81
49.17
48.89
48.77
48.47
47.64
46.07
43.78
40.97
37.92
34.94
32.27
30.05
28.29
26.88
25.62
24.26
22.62
20.60
18.25
15.69
13.05
10.47
8.03
5.82
3.86
2.15
0.57
-1.09
-3.15
-5.82
-9.19
-13.05
-16.98
-20.49
-23.26
-25.35
-27.20
-29.45
-32.73
-37.27
-42.88
-48.96
-54.82
-59.97
-64.32
-68.22
-72.26
-77.17
-83.54
-91.65
-101.29
-111.57
-120.93
-127.31
-128.73
-123.86
-112.60
-96.16
-76.80
-57.03
-38.94
-23.63
-11.23
-1.13
7.49
15.33
22.76
29.90
36.74
43.22
49.24
54.65
59.26
62.91
65.51
67.10
67.90
68.26
68.55
69.06
69.92
71.05
72.09
72.60
72.19
70.72
68.37
65.58
62.89
60.65
58.97
57.60
56.13
54.21
51.65
48.52
45.09
41.68
38.52
35.69
33.08
30.53
27.88
25.00
21.83
18.39
14.71
10.87
6.98
3.18
-0.42
-3.82
-7.17
-10.73
-14.73
-19.20
-23.96
-28.63
-32.89
-36.66
-40.20
-43.97
-48.35
-53.47
-59.05
-64.56
-69.50
-73.65
-77.13
-80.45
-84.24
-89.16
-95.70
-103.93
-113.37
-122.87
-130.63
-134.64
-133.13
-125.25
-111.39
-93.14
-72.81
-52.69
-34.46
-18.91
-5.93
5.03
14.67
23.49
31.72
39.39
46.41
52.64
57.92
62.07
64.91
66.38
66.56
65.79
64.56
63.41
62.71
62.55
62.76
62.93
62.67
61.71
60.01
57.73
55.18
52.65
50.43
48.67
47.38
46.44
45.63
44.66
43.35
41.64
39.65
37.65
35.94
34.74
34.08
33.78
33.51
32.92
31.73
29.89
27.54
24.91
22.21
19.58
17.11
14.84
12.80
10.96
9.18
7.20
4.74
1.68
-1.84
-5.47
-8.77
-11.51
-13.89
-16.47
-19.90
-24.66
-30.73
-37.63
-44.60
-50.93
-56.26
-60.66
-64.66
-68.99
-74.41
-81.49
-90.35
-100.46
-110.50
-118.48
-122.21
-119.85
-110.63
-95.21
-75.55
-54.29
-33.93
-16.18
-1.69
9.85
19.24
27.38
34.98
42.43
49.82
56.99
63.57
69.06
73.03
75.23
75.71
74.84
73.12
71.09
69.15
67.50
66.12
64.88
63.54
61.85
59.66
56.92
53.72
50.30
46.99
44.18
42.09
40.79
40.11
39.69
39.11
38.09
36.57
34.71
32.77
30.99
29.40
27.88
26.20
24.16
21.69
18.82
15.62
12.21
8.70
5.21
1.88
-1.19
-4.00
-6.67
-9.50
-12.85
-17.04
-22.17
-28.13
-34.53
-40.81
-46.37
-50.69
-53.54
-54.98
-55.43
-55.49
-55.74
-56.50
-57.80
-59.32
-60.69
-61.70
-62.48
-63.59
-65.86
-70.06
-76.54
-84.85
-93.63
-100.82
-104.15
-101.91
-93.50
-79.73
-62.52
-44.25
-27.01
-12.07
0.24
10.28
18.64
25.86
32.23
37.89
42.89
47.23
50.94
53.97
56.25
57.72
58.37
58.31
57.76
56.99
56.23
55.61
55.08
54.48
53.61
52.29
50.42
48.05
45.25
42.15
38.87
35.52
32.20
29.04
26.09
23.42
21.05
18.99
17.25
15.83
14.69
13.77
12.95
12.14
11.24
10.26
9.22
8.15
7.08
5.97
4.82
3.64
2.48
1.45
0.59
-0.07
-0.64
-1.27
-2.08
-3.16
-4.49
-6.02
-7.67
-9.40
-11.31
-13.54
-16.28
-19.67
-23.77
-28.47
-33.58
-38.88
-44.14
-49.26
-54.21
-59.14
-64.43
-70.65
-78.48
-88.35
-100.00
-112.18
-122.73
-129.12
-129.30
-122.49
-109.47
-92.26
-73.43
-55.23
-39.07
-25.47
-14.30
-5.14
2.51
9.17
15.38
21.58
28.02
34.54
40.67
45.78
49.43
51.55
52.51
52.94
53.53
54.83
57.12
60.46
64.65
69.25
73.71
77.37
79.74
80.57
79.91
78.11
75.64
72.96
70.33
67.87
65.48
63.03
60.42
57.71
55.15
53.02
51.56
50.82
50.63
50.66
50.59
50.11
49.06
47.36
44.99
42.01
38.55
34.79
30.84
26.78
22.59
18.26
13.85
9.52
5.47
1.83
-1.48
-4.76
-8.40
-12.70
-17.65
-22.92
-28.01
-32.46
-36.12
-39.19
-42.11
-45.35
-49.18
-53.59
-58.31
-63.00
-67.36
-71.34
-75.06
-78.90
-83.38
-89.08
-96.41
-105.39
-115.28
-124.57
-131.12
-132.76
-127.92
-116.30
-98.99
-78.25
-56.75
-36.81
-19.84
-6.23
4.48
13.13
20.53
27.25
33.59
39.63
45.36
50.72
55.57
59.73
62.99
65.17
66.25
66.39
65.87
65.05
64.24
63.62
63.23
62.98
62.75
62.36
61.69
60.61
59.10
57.22
55.16
53.12
51.23
49.48
47.73
45.78
43.50
40.96
38.36
35.94
33.87
32.14
30.56
28.86
26.84
24.43
21.69
18.75
15.77
12.86
10.02
7.24
4.49
1.83
-0.63
-2.72
-4.33
-5.50
-6.43
-7.44
-8.83
-10.80
-13.32
-16.18
-19.10
-21.91
-24.55
-27.24
-30.27
-33.94
-38.39
-43.54
-49.19
-55.02
-60.81
-66.47
-72.13
-78.13
-84.95
-93.20
-103.25
-114.95
-127.25
-138.13
-144.93
-145.12
-137.22
-121.47
-99.84
-75.42
-51.40
-30.13
-12.65
1.16
12.14
21.20
29.08
36.17
42.64
48.62
54.15
59.21
63.63
67.14
69.46
70.50
70.44
69.75
69.02
68.77
69.26
70.36
71.65
72.56
72.59
71.48
69.29
66.32
63.03
59.87
57.09
54.75
52.71
50.75
48.69
46.51
44.32
42.32
40.61
39.15
37.73
36.12
34.15
31.79
29.12
26.30
23.44
20.65
17.92
15.22
12.44
9.46
6.19
2.61
-1.19
-5.04
-8.78
-12.37
-15.92
-19.65
-23.73
-28.14
-32.63
-36.83
-40.39
-43.21
-45.51
-47.77
-50.55
-54.23
-58.89
-64.24
-69.74
-74.84
-79.17
-82.71
-85.73
-88.80
-92.62
-97.87
-104.92
-113.54
-122.66
-130.30
-134.00
-131.49
-121.59
-104.64
-82.60
-58.40
-35.03
-14.76
1.39
13.50
22.45
29.34
35.12
40.40
45.46
50.35
55.00
59.28
63.02
66.02
68.09
69.08
68.99
68.06
66.75
65.65
65.18
65.49
66.26
66.96
66.90
65.68
63.21
59.78
55.87
51.93
48.28
45.00
42.00
39.13
36.29
33.47
30.74
28.21
25.92
23.87
21.94
19.98
17.90
15.75
13.69
11.93
10.67
9.88
9.31
8.57
7.22
4.98
1.84
-1.97
-6.12
-10.30
-14.51
-18.97
-24.03
-30.01
-36.94
-44.55
-52.34
-59.83
-66.64
-72.69
-78.12
-83.35
-89.00
-95.82
-104.41
-114.77
-125.92
-135.77
-141.51
-140.50
-131.30
-114.31
-91.78
-66.98
-43.20
-22.76
-6.54
5.80
15.24
22.94
29.77
36.20
42.39
48.24
53.58
58.16
61.77
64.24
65.47
65.47
64.34
62.43
60.18
58.17
56.83
56.34
56.55
57.05
57.33
57.02
55.95
54.26
52.23
50.22
48.48
47.06
45.83
44.56
43.01
41.08
38.88
36.66
34.73
33.24
32.22
31.52
30.89
30.10
28.92
27.21
24.87
21.91
18.48
14.83
11.23
7.85
4.70
1.57
-1.78
-5.54
-9.67
-13.94
-18.01
-21.66
-24.93
-28.18
-31.95
-36.76
-42.84
-49.97
-57.56
-64.85
-71.26
-76.60
-81.17
-85.65
-90.90
-97.62
-106.20
-116.39
-127.14
-136.56
-142.23
-141.77
-133.63
-117.82
-96.01
-71.12
-46.43
-24.56
-6.92
6.39
16.12
23.32
28.95
33.71
38.04
42.18
46.22
49.98
53.15
55.34
56.30
56.03
54.82
53.13
51.50
50.34
49.94
50.34
51.45
53.00
54.60
55.80
56.25
55.76
54.34
52.20
49.59
46.76
43.81
40.80
37.66
34.38
30.98
27.50
24.02
20.64
17.43
14.36
11.39
8.39
5.31
2.18
-0.84
-3.56
-5.80
-7.56
-9.02
-10.45
-12.16
-14.41
-17.33
-20.92
-24.99
-29.18
-33.04
-36.17
-38.51
-40.63
-43.78
-49.57
-59.52
-74.48
-94.22
-117.46
-141.99
-164.99
-183.37
-194.13
-194.92
-184.51
-163.37
-133.69
-99.03
-63.35
-30.02
-1.06
23.02
42.80
59.21
72.98
84.40
93.53
100.40
105.26
108.52
110.66
112.01
112.75
112.90
112.49
111.58
110.23
108.50
106.29
103.44
99.87
95.64
91.01
86.34
81.84
77.40
72.66
67.14
60.56
52.98
44.85
36.76
29.15
22.17
15.61
9.12
2.34
-5.00
-12.97
-21.47
-30.17
-38.42
-45.42
-50.36
-52.76
-52.65
-50.60
-47.45
-43.99
-40.62
-37.37
-34.08
-30.67
-27.32
-24.45
-22.52
-21.85
-22.70
-25.40
-30.54
-38.85
-50.92
-66.81
-86.06
-107.84
-131.42
-156.33
-181.93
-206.72
-227.89
-241.53
-243.88
-232.85
-209.10
-175.88
-137.77
-98.99
-62.10
-27.84
4.13
34.22
62.21
87.37
108.90
126.45
140.34
151.12
159.20
164.40
166.13
163.75
157.22
147.45
136.14
125.16
115.75
108.02
101.04
93.53
84.58
74.34
63.81
54.32
46.76
41.25
37.20
33.86
30.84
28.31
26.85
27.09
29.26
33.17
38.23
43.76
49.16
54.10
58.38
61.82
64.03
64.41
62.25
57.12
49.10
38.92
27.80
17.02
7.53
-0.30
-6.59
-11.73
-16.00
-19.54
-22.27
-24.13
-25.07
-25.12
-24.33
-22.81
-20.83
-18.89
-17.68
-17.89
-19.91
-23.70
-28.86
-34.93
-41.72
-49.52
-59.04
-71.13
-86.36
-104.68
-125.16
-145.84
-163.91
-176.20
-179.95
-173.60
-157.46
-133.58
-105.29
-76.06
-48.66
-24.58
-4.09
13.31
28.43
41.91
54.24
65.77
76.79
87.51
97.90
107.69
116.23
122.62
125.87
125.19
120.32
111.79
100.98
89.80
80.06
72.74
67.71
63.91
60.02
55.25
49.80
44.68
41.10
39.81
40.69
43.01
45.87
48.64
51.06
53.08
54.55
55.10
54.30
51.83
47.68
42.10
35.47
28.18
20.54
12.85
5.40
-1.58
-7.99
-13.90
-19.64
-25.62
-32.23
-39.71
-48.14
-57.40
-67.19
-77.09
-86.59
-95.30
-103.09
-110.31
-117.77
-126.50
-137.30
-150.20
-164.12
-176.84
-185.45
-187.16
-180.14
-164.12
-140.53
-112.11
-82.10
-53.44
-28.07
-6.74
10.84
25.52
38.22
49.57
59.80
68.78
76.26
82.02
85.93
88.05
88.52
87.62
85.80
83.63
81.77
80.77
80.84
81.79
82.99
83.60
82.90
80.53
76.70
72.04
67.37
63.39
60.38
58.18
56.35
54.42
52.15
49.59
47.02
44.70
42.76
41.08
39.39
37.44
35.12
32.48
29.66
26.77
23.78
20.54
16.89
12.72
8.09
3.24
-1.56
-6.11
-10.36
-14.44
-18.59
-23.03
-27.80
-32.79
-37.65
-42.05
-45.78
-48.89
-51.79
-55.02
-59.10
-64.24
-70.27
-76.69
-82.87
-88.30
-92.84
-96.78
-100.80
-105.84
-112.79
-122.18
-133.75
-146.21
-157.20
-163.82
-163.35
-154.24
-136.67
-112.61
-85.28
-58.08
-33.71
-13.55
2.31
14.63
24.46
32.74
40.11
46.90
53.30
59.40
65.10
70.18
74.18
76.57
77.01
75.48
72.43
68.67
65.12
62.44
60.87
60.07
59.31
57.76
54.84
50.38
44.75
38.76
33.30
29.06
26.13
23.90
21.26
17.16
11.01
3.12
-5.08
-11.49
-13.88
-10.81
-2.12
10.80
25.19
37.31
43.09
39.22
23.76
-2.90
-37.96
-76.58
-113.04
-142.29
-161.51
-171.72
-175.08
-175.00
-172.75
-167.97
-158.81
-144.06
-122.93
-95.51
-62.24
-22.81
23.80
78.81
141.83
209.70
276.27
334.11
376.68
400.57
406.46
398.07
380.39
357.64
332.46
306.11
279.47
253.41
228.85
206.30
185.32
164.86
144.08
123.38
104.78
91.15
84.58
84.70
88.10
89.09
81.76
62.30
30.82
-8.53
-48.85
-82.98
-105.81
-115.64
-114.06
-104.61
-91.10
-76.35
-62.05
-49.41
-40.12
-36.68
-41.55
-55.90
-78.47
-105.70
-133.04
-156.80
-175.43
-189.55
-200.89
-210.98
-220.30
-228.39
-234.58
-238.76
-241.61
-244.34
-248.10
-253.61
-261.13
-270.59
-281.70
-294.01
-306.55
-317.58
-324.48
-324.08
-313.31
-289.99
-253.51
-205.21
-148.51
-88.52
-31.19
17.75
54.17
76.46
85.85
85.81
80.77
74.61
69.57
65.94
62.65
58.29
52.02
44.04
35.40
27.64
22.27
20.52
23.18
30.45
41.77
55.77
70.23
82.60
90.64
93.20
90.61
84.62
77.72
72.25
69.55
69.54
70.89
71.62
69.87
64.72
56.61
47.36
39.66
36.26
38.95
47.99
61.92
78.04
93.36
105.52
113.49
117.68
119.59
121.14
123.99
129.07
136.34
144.89
153.17
159.18
160.89
156.72
146.14
130.23
111.70
94.39
82.16
77.52
80.65
89.27
99.49
107.07
108.95
103.95
92.78
77.49
60.43
43.45
27.56
12.96
-0.65
-13.57
-25.78
-36.97
-46.91
-55.77
-64.09
-72.33
-80.14
-85.94
-87.44
-82.98
-72.78
-59.35
-46.41
-36.93
-31.65
-28.77
-25.41
-19.56
-11.52
-3.66
1.18
1.54
-1.58
-5.30
-6.40
-2.96
4.91
15.48
26.54
36.42
44.32
50.05
53.37
53.48
49.09
38.94
22.74
1.75
-21.32
-43.22
-61.25
-74.11
-82.04
-86.12
-87.46
-86.77
-84.37
-80.66
-76.52
-73.07
-71.17
-70.59
-69.94
-67.15
-60.55
-49.55
-34.74
-17.49
0.61
17.82
32.16
41.55
44.25
39.83
29.68
16.82
4.80
-3.67
-7.52
-7.14
-3.62
2.04
9.02
16.13
21.51
22.77
17.92
6.40
-10.66
-31.03
-52.50
-73.77
-94.69
-115.68
-137.07
-158.50
-178.95
-196.95
-210.86
-219.06
-220.10
-212.79
-196.50
-171.48
-139.12
-101.85
-62.76
-24.90
9.39
38.71
62.56
80.93
93.94
101.82
105.07
104.71
102.09
98.48
94.38
89.13
81.15
68.78
51.28
29.27
4.44
-21.15
-45.78
-68.11
-87.01
-101.24
-109.66
-111.96
-109.50
-105.46
-103.99
-108.69
-120.97
-139.35
-160.04
-178.41
-190.67
-194.84
-190.85
-179.72
-162.86
-141.41
-116.16
-87.74
-56.82
-24.37
8.43
40.35
70.42
98.13
123.57
147.34
170.27
192.91
215.08
235.61
252.40
262.77
264.30
255.60
236.91
210.19
178.55
145.31
113.10
83.41
56.68
32.70
11.19
-8.01
-24.85
-39.18
-50.64
-58.69
-62.77
-62.62
-58.52
-51.34
-41.99
-30.91
-17.84
-2.16
16.25
36.48
56.57
74.18
87.63
96.40
100.97
102.15
100.14
94.15
82.82
65.17
41.64
14.44
-13.08
-37.75
-57.73
-72.96
-84.59
-93.85
-101.14
-106.05
-108.02
-107.30
-105.23
-103.72
-104.21
-106.88
-110.65
-113.96
-115.75
-115.86
-114.85
-113.28
-111.12
-107.72
-101.98
-92.99
-80.27
-63.89
-44.22
-21.74
3.20
30.14
58.30
86.37
112.51
134.61
150.75
159.63
160.75
154.24
140.73
121.20
97.12
70.37
43.18
17.75
-4.09
-21.20
-33.10
-39.88
-42.13
-40.90
-37.67
-34.39
-33.25
-36.40
-45.53
-61.41
-83.45
-109.47
-135.99
-158.90
-174.54
-180.81
-177.80
-167.63
-153.47
-138.26
-123.67
-109.83
-95.77
-80.30
-62.75
-43.37
-23.16
-3.42
14.73
30.65
44.19
55.56
65.24
73.97
82.60
91.96
102.55
114.26
126.31
137.47
146.56
152.81
155.96
156.13
153.46
148.02
139.93
129.59
117.96
106.48
96.78
90.11
87.04
87.28
89.77
92.87
94.68
93.37
87.63
77.05
62.33
45.07
27.34
11.02
-2.80
-13.97
-23.28
-32.06
-41.87
-54.11
-69.68
-88.73
-110.28
-132.21
-151.35
-164.17
-167.63
-160.02
-141.38
-113.27
-78.30
-39.53
-0.11
36.99
69.15
94.36
111.54
120.63
122.48
118.42
109.80
97.75
83.29
67.43
51.31
35.98
22.15
10.09
-0.22
-8.71
-15.05
-18.76
-19.61
-17.94
-14.61
-10.71
-6.94
-3.40
0.31
4.67
9.77
15.11
19.82
23.06
24.45
24.27
23.32
22.59
22.90
24.60
27.57
31.29
35.11
38.39
40.68
41.70
41.37
39.73
36.97
33.40
29.42
25.47
21.95
19.11
16.99
15.39
13.98
12.40
10.33
7.63
4.40
0.91
-2.49
-5.55
-8.26
-10.85
-13.77
-17.48
-22.34
-28.43
-35.54
-43.28
-51.12
-58.51
-65.02
-70.42
-74.75
-78.43
-82.11
-86.55
-92.41
-100.01
-109.13
-118.90
-127.88
-134.33
-136.57
-133.60
-125.30
-112.58
-96.96
-80.17
-63.60
-48.08
-33.95
-21.25
-9.97
-0.07
8.58
16.35
23.83
31.63
40.12
49.21
58.30
66.55
73.20
77.86
80.77
82.83
85.48
90.49
99.62
114.04
133.71
156.96
180.54
200.39
212.78
215.40
207.90
191.76
169.57
144.30
118.72
95.02
74.75
58.76
47.18
39.58
35.05
32.49
30.68
28.48
24.87
19.15
11.15
1.33
-9.46
-20.37
-30.98
-41.41
-52.06
-63.10
-74.19
-84.53
-93.30
-100.15
-105.22
-109.00
-111.96
-114.32
-116.11
-117.47
-118.81
-120.70
-123.48
-126.82
-129.48
-129.61
-125.43
-115.95
-101.46
-83.46
-64.15
-45.69
-29.54
-16.28
-5.67
2.96
10.29
16.73
22.41
27.22
30.96
33.39
34.32
33.61
31.29
27.61
23.09
18.51
14.78
12.76
13.07
15.96
21.23
28.23
36.02
43.49
49.67
53.99
56.31
56.95
56.47
55.41
54.14
52.83
51.58
50.42
49.46
48.70
48.00
47.08
45.57
43.22
39.98
36.03
31.67
27.21
22.84
18.65
14.70
11.07
7.85
5.06
2.56
0.00
-2.96
-6.58
-10.84
-15.40
-19.86
-23.92
-27.60
-31.23
-35.24
-39.88
-45.12
-50.57
-55.80
-60.51
-64.70
-68.66
-72.85
-77.71
-83.50
-90.24
-97.61
-104.81
-110.61
-113.51
-112.09
-105.41
-93.39
-76.81
-57.13
-35.95
-14.75
5.37
23.72
39.80
53.29
64.00
72.03
77.82
82.09
85.64
89.05
92.57
96.00
98.83
100.39
100.05
97.33
92.03
84.24
74.39
63.21
51.48
39.90
28.82
18.22
7.76
-2.94
-14.07
-25.45
-36.44
-46.09
-53.31
-57.25
-57.51
-54.37
-48.73
-41.84
-34.97
-29.08
-24.69
-21.99
-20.95
-21.48
-23.28
-25.80
-28.07
-28.82
-26.77
-21.07
-11.70
0.38
13.61
26.46
38.13
48.95
60.17
73.20
88.73
106.01
123.01
137.01
145.54
147.17
141.72
130.00
113.38
93.40
71.54
49.28
27.96
8.59
-8.55
-24.15
-39.62
-56.37
-74.77
-93.50
-109.71
-120.04
-122.13
-115.59
-102.22
-85.06
-67.13
-50.36
-35.21
-21.05
-6.78
8.59
25.79
45.19
66.76
89.90
113.21
134.60
151.75
162.57
165.73
160.90
148.82
131.08
109.67
86.46
62.62
38.36
13.11
-13.92
-42.84
-72.57
-100.80
-124.61
-141.46
-150.00
-150.38
-143.89
-132.19
-116.53
-97.48
-75.18
-49.98
-23.08
3.25
26.14
43.02
52.54
54.94
51.75
44.94
36.06
25.89
14.65
2.59
-9.72
-21.39
-31.69
-40.44
-48.08
-55.29
-62.57
-70.06
-77.63
-85.29
-93.30
-102.23
-112.53
-124.27
-136.82
-148.75
-157.93
-161.79
-157.82
-144.26
-120.73
-88.62
-50.80
-10.77
28.28
64.12
95.57
121.96
142.68
156.90
163.92
163.49
156.22
143.41
126.71
107.70
87.63
67.54
48.43
31.28
16.94
5.90
-1.81
-6.55
-8.94
-9.70
-9.67
-9.85
-11.30
-14.75
-20.19
-26.65
-32.47
-35.86
-35.46
-30.60
-21.13
-7.17
10.88
31.98
53.97
73.50
86.75
90.69
84.31
68.98
47.94
24.91
2.81
-16.89
-33.87
-48.25
-59.90
-68.38
-73.23
-74.65
-73.69
-72.07
-71.42
-72.68
-75.68
-79.33
-82.25
-83.42
-82.69
-80.70
-78.50
-76.99
-76.61
-77.21
-78.32
-79.47
-80.46
-81.44
-82.87
-85.29
-89.20
-94.81
-101.84
-109.28
-115.33
-117.66
-113.97
-102.69
-83.64
-58.28
-29.36
-0.19
26.26
48.05
64.56
76.22
83.97
88.71
90.91
90.49
87.09
80.44
70.67
58.59
45.60
33.39
23.61
17.47
15.52
17.60
22.86
29.98
37.35
43.44
47.29
49.02
50.09
53.16
61.25
76.55
99.31
127.23
155.84
179.70
193.94
195.65
184.43
162.29
132.76
99.87
67.29
37.80
13.30
-5.08
-16.74
-21.56
-20.01
-13.30
-3.43
7.10
15.74
20.55
20.62
16.24
8.56
-0.92
-10.81
-20.19
-28.62
-36.04
-42.58
-48.48
-53.98
-59.31
-64.58
-69.73
-74.43
-78.15
-80.39
-80.86
-79.67
-77.47
-75.30
-74.36
-75.77
-80.07
-86.93
-94.84
-101.28
-103.20
-98.00
-84.43
-63.18
-36.81
-9.08
16.18
36.06
49.18
55.77
57.16
55.19
51.66
48.09
45.78
45.80
48.96
55.57
65.05
75.85
85.72
92.29
93.97
90.56
83.30
74.41
66.16
60.03
56.20
53.72
51.02
46.73
40.17
31.61
21.85
11.74
1.72
-8.39
-18.97
-30.20
-41.55
-51.86
-59.85
-64.87
-67.55
-69.72
-73.68
-81.15
-92.40
-106.11
-120.03
-132.08
-141.09
-146.90
-149.79
-149.84
-146.68
-139.89
-129.51
-116.43
-102.16
-88.09
-74.77
-61.79
-48.09
-32.78
-15.78
2.05
19.26
34.38
46.44
55.11
60.69
63.82
65.21
65.32
64.30
61.91
57.76
51.52
43.18
33.08
21.82
10.22
-0.76
-10.08
-16.62
-19.42
-17.95
-12.46
-4.04
5.64
14.89
22.58
28.44
32.91
36.71
40.27
43.49
45.75
46.23
44.28
39.63
32.47
23.28
12.84
2.07
-7.95
-16.07
-21.37
-23.38
-22.30
-19.01
-14.75
-10.67
-7.40
-4.83
-2.34
0.91
5.49
11.49
18.56
26.09
33.49
40.32
46.41
51.76
56.47
60.59
64.04
66.60
67.97
67.95
66.63
64.45
62.15
60.50
60.02
60.69
62.02
63.13
63.12
61.36
57.70
52.46
46.25
39.72
33.30
27.09
20.95
14.62
7.87
0.51
-7.68
-17.01
-27.83
-40.40
-54.71
-70.40
-86.85
-103.37
-119.27
-133.86
-146.28
-155.42
-160.11
-159.50
-153.47
-142.79
-129.00
-113.85
-98.80
-84.57
-71.21
-58.34
-45.58
-32.80
-20.14
-7.91
3.64
14.45
24.64
34.30
43.43
51.76
58.88
64.38
68.13
70.42
71.81
72.98
74.44
76.24
78.02
79.15
79.03
77.37
74.33
70.38
66.15
62.17
58.71
55.74
53.03
50.32
47.43
44.29
41.00
37.70
34.53
31.57
28.81
26.11
23.25
20.00
16.22
11.92
7.34
2.84
-1.28
-4.92
-8.30
-11.84
-15.98
-20.99
-26.82
-33.07
-39.19
-44.61
-48.93
-52.01
-54.12
-55.82
-57.94
-61.19
-65.78
-71.02
-75.20
-76.05
-71.45
-60.43
-43.77
-24.02
-4.77
10.47
19.41
21.70
18.82
13.45
8.44
5.88
6.66
10.49
16.31
22.85
29.05
34.28
38.33
41.28
43.45
45.32
47.53
50.73
55.49
62.03
70.12
79.01
87.67
94.95
99.94
102.16
101.72
99.16
95.30
90.92
86.53
82.24
77.87
73.12
67.85
62.16
56.32
50.56
44.94
39.19
32.93
25.83
17.90
9.49
1.24
-6.23
-12.51
-17.56
-21.64
-25.18
-28.56
-32.06
-35.79
-39.84
-44.24
-48.93
-53.76
-58.41
-62.49
-65.63
-67.63
-68.43
-68.06
-66.48
-63.61
-59.40
-53.99
-47.80
-41.53
-35.91
-31.47
-28.32
-26.19
-24.61
-23.20
-21.83
-20.72
-20.27
-20.91
-22.90
-26.29
-31.00
-36.80
-43.41
-50.52
-57.80
-65.07
-72.36
-79.99
-88.37
-97.68
-107.51
-116.68
-123.44
-126.07
-123.43
-115.37
-102.79
-87.20
-70.22
-53.15
-36.76
-21.39
-7.14
5.98
18.00
28.92
38.77
47.66
55.68
62.95
69.61
75.87
81.97
88.13
94.43
100.67
106.27
110.31
111.72
109.52
103.25
93.13
80.17
65.93
52.08
40.05
30.56
23.68
18.93
15.55
12.86
10.39
7.90
5.33
2.76
0.23
-2.23
-4.58
-6.86
-9.17
-11.63
-14.44
-17.73
-21.46
-25.41
-29.15
-32.29
-34.69
-36.73
-39.31
-43.61
-50.67
-60.78
-73.39
-87.20
-100.72
-112.88
-123.42
-132.78
-141.60
-150.13
-157.75
-163.03
-164.02
-158.71
-145.61
-124.33
-96.17
-64.12
-32.28
-4.50
17.00
32.41
44.00
54.81
67.20
81.89
98.08
114.30
129.44
143.07
155.08
165.05
171.97
174.79
173.29
168.76
163.90
161.98
165.60
175.75
191.47
210.19
228.74
244.34
255.24
260.96
261.82
258.42
251.38
241.35
229.33
216.77
205.21
195.68
188.02
180.67
171.27
157.65
138.89
115.66
89.89
63.95
39.77
18.40
0.13
-15.11
-27.42
-36.86
-43.55
-47.83
-50.33
-51.86
-53.31
-55.37
-58.43
-62.52
-67.38
-72.61
-77.83
-82.86
-87.77
-92.92
-98.78
-105.79
-114.11
-123.55
-133.48
-143.14
-151.71
-158.55
-163.00
-164.20
-160.93
-151.75
-135.49
-111.86
-81.88
-47.85
-12.83
20.00
47.77
68.02
78.69
78.23
66.15
43.57
13.46
-19.84
-51.66
-78.07
-96.59
-106.03
-106.03
-96.65
-78.43
-52.90
-23.05
6.71
31.43
46.94
51.26
45.23
32.19
16.73
3.09
-6.05
-10.17
-10.48
-9.15
-8.34
-9.65
-14.03
-21.96
-33.62
-48.77
-66.50
-85.02
-101.94
-114.81
-121.97
-123.12
-119.51
-113.54
-108.12
-105.88
-108.60
-117.03
-131.05
-150.09
-173.46
-200.48
-230.27
-261.36
-291.39
-317.26
-335.69
-344.29
-342.36
-331.21
-313.73
-293.38
-272.96
-253.82
-235.65
-216.82
-195.05
-168.07
-134.34
-93.62
-47.43
0.93
46.85
85.56
113.47
129.34
134.85
133.96
131.59
131.92
137.08
146.78
158.90
170.62
179.58
184.56
185.37
182.42
176.18
167.04
155.37
141.70
126.65
110.60
93.45
74.80
54.53
33.37
13.18
-3.61
-14.92
-19.98
-19.63
-15.92
-11.13
-6.86
-3.63
-0.93
2.31
7.27
14.81
25.25
38.25
52.78
67.36
80.38
90.51
97.05
100.10
100.39
98.98
96.88
94.76
92.91
91.23
89.44
87.13
83.84
79.14
72.53
63.66
52.42
39.21
25.09
11.66
0.92
-5.39
-6.07
-0.95
9.02
21.84
34.64
44.26
47.87
43.80
32.30
15.96
-0.66
-12.08
-13.50
-2.32
21.00
53.01
88.17
120.09
142.85
151.91
144.86
122.00
86.58
44.50
3.09
-30.74
-52.66
-62.28
-63.06
-60.82
-61.32
-68.13
-81.50
-98.81
-116.11
-130.01
-139.06
-144.06
-147.42
-151.87
-159.35
-170.35
-183.90
-198.10
-210.70
-219.67
-223.40
-220.70
-210.86
-193.70
-169.70
-140.14
-106.98
-72.51
-38.81
-7.36
21.21
47.06
70.76
92.82
113.35
131.89
147.55
159.35
166.67
169.55
168.75
165.43
160.78
155.63
150.25
144.45
137.85
130.15
121.28
111.44
100.93
90.06
79.03
67.97
56.93
45.80
34.38
22.48
10.06
-2.55
-14.59
-25.16
-33.45
-39.12
-42.41
-43.94
-44.52
-44.88
-45.53
-46.72
-48.56
-51.04
-54.22
-58.30
-63.71
-71.04
-80.67
-92.45
-105.28
-117.24
-125.92
-129.20
-125.88
-115.99
-100.62
-81.50
-60.40
-38.84
-18.06
0.94
17.31
30.39
39.94
46.14
49.66
51.36
52.08
52.35
52.41
52.28
51.99
51.68
51.61
52.04
53.12
54.76
56.69
58.60
60.21
61.37
62.03
62.17
61.73
60.62
58.77
56.19
53.03
49.51
45.83
42.10
38.34
34.54
30.72
27.01
23.55
20.44
17.62
14.93
12.15
9.06
5.49
1.30
-3.64
-9.40
-15.94
-23.02
-30.19
-36.87
-42.50
-46.67
-49.21
-50.20
-49.95
-49.01
-48.11
-48.10
-49.86
-54.03
-60.68
-69.12
-77.85
-84.86
-88.19
-86.42
-79.06
-66.60
-50.16
-31.11
-10.75
9.84
29.66
47.68
62.92
74.54
82.16
85.93
86.54
84.99
82.31
79.30
76.37
73.59
70.77
67.75
64.54
61.36
58.53
56.26
54.53
53.01
51.28
48.98
46.07
42.78
39.55
36.79
34.79
33.70
33.54
34.21
35.43
36.74
37.58
37.51
36.36
34.29
31.75
29.25
27.19
25.74
24.93
24.66
24.77
25.06
25.27
25.17
24.57
23.48
22.06
20.57
19.23
18.09
16.91
15.30
12.80
9.17
4.52
-0.66
-5.58
-9.44
-11.75
-12.49
-12.15
-11.58
-11.66
-13.05
-16.05
-20.54
-26.10
-32.11
-37.92
-43.02
-47.28
-51.03
-55.04
-60.14
-66.81
-74.70
-82.58
-88.52
-90.66
-87.87
-80.24
-69.05
-56.34
-44.13
-33.91
-26.27
-20.98
-17.23
-14.11
-10.79
-6.77
-1.93
3.51
9.06
14.05
17.79
19.74
19.63
17.62
14.19
10.06
6.01
2.66
0.31
-1.07
-1.81
-2.44
-3.37
-4.90
-6.99
-9.40
-11.70
-13.45
-14.25
-13.86
-12.13
-9.07
-4.88
0.06
5.17
9.77
13.27
15.35
16.05
15.61
14.39
12.52
9.89
6.14
0.83
-6.25
-15.03
-25.08
-35.83
-46.69
-57.23
-67.17
-76.37
-84.79
-92.56
-99.96
-107.41
-115.29
-123.63
-131.78
-138.34
-141.44
-139.31
-131.00
-116.81
-98.24
-77.53
-56.92
-38.03
-21.70
-7.94
3.58
13.37
21.78
29.00
35.15
40.24
44.28
47.31
49.39
50.58
51.01
50.78
49.99
48.72
47.04
45.08
42.99
40.88
38.80
36.67
34.34
31.73
28.87
25.88
22.92
20.06
17.25
14.28
10.96
7.18
2.95
-1.57
-6.22
-10.90
-15.64
-20.57
-25.78
-31.27
-36.92
-42.47
-47.62
-52.12
-55.88
-59.06
-62.10
-65.58
-70.02
-75.54
-81.60
-86.93
-89.68
-88.00
-80.58
-67.21
-48.82
-27.26
-4.77
16.72
35.91
52.27
65.87
77.12
86.52
94.48
101.29
107.08
111.82
115.40
117.63
118.44
117.88
116.12
113.46
110.20
106.59
102.85
99.19
95.83
92.95
90.53
88.42
86.27
83.75
80.67
77.11
73.31
69.57
66.07
62.75
59.37
55.68
51.53
46.98
42.32
37.94
34.15
31.09
28.69
26.77
25.07
23.41
21.68
19.89
18.06
16.23
14.47
12.82
11.35
10.12
9.08
8.14
7.10
5.81
4.16
2.17
-0.04
-2.31
-4.52
-6.66
-8.81
-11.15
-13.83
-16.86
-20.15
-23.49
-26.76
-29.94
-33.15
-36.63
-40.54
-44.94
-49.73
-54.67
-59.50
-64.02
-68.22
-72.24
-76.50
-81.65
-88.29
-96.80
-106.92
-117.55
-126.81
-132.49
-132.66
-126.28
-113.60
-96.02
-75.75
-55.05
-35.72
-18.68
-4.06
8.59
19.86
30.18
39.72
48.45
56.24
63.01
68.76
73.50
77.29
80.07
81.81
82.51
82.30
81.46
80.38
79.41
78.76
78.38
78.00
77.24
75.81
73.66
71.02
68.33
65.96
64.07
62.53
60.94
58.92
56.27
53.05
49.59
46.33
43.61
41.58
40.20
39.22
38.30
37.19
35.71
33.88
31.91
30.10
28.77
28.06
27.87
27.92
27.81
27.29
26.34
25.20
24.33
24.22
25.24
27.44
30.55
33.95
36.89
38.70
39.14
38.50
37.59
37.52
39.18
42.88
48.11
53.62
57.79
59.05
56.34
49.30
38.25
24.01
7.56
-10.12
-28.25
-46.10
-62.86
-77.42
-88.31
-93.91
-92.89
-84.71
-69.94
-50.31
-28.36
-6.87
11.73
25.69
34.14
37.01
34.87
28.80
20.18
10.48
0.90
-7.87
-15.78
-23.25
-30.82
-38.74
-46.77
-54.13
-59.55
-61.50
-58.46
-49.42
-34.42
-14.82
6.77
27.10
43.22
53.24
56.74
54.60
48.36
39.70
29.98
20.05
10.22
0.43
-9.61
-20.13
-31.07
-42.08
-52.80
-63.19
-73.73
-85.21
-98.23
-112.67
-127.65
-141.83
-154.11
-164.17
-172.51
-180.03
-187.54
-195.20
-202.66
-209.31
-214.74
-218.94
-222.28
-225.28
-228.33
-231.58
-235.06
-238.89
-243.29
-248.46
-254.09
-259.08
-261.47
-258.82
-248.95
-230.67
-204.19
-171.06
-133.71
-94.76
-56.45
-20.23
13.29
44.20
72.95
100.05
125.74
149.80
171.61
190.25
204.90
215.11
221.05
223.53
223.78
223.17
222.78
223.21
224.44
226.05
227.36
227.75
226.83
224.44
220.61
215.41
208.88
201.00
191.75
181.17
169.54
157.39
145.50
134.76
125.87
119.08
114.07
110.10
106.36
102.26
97.64
92.63
87.44
82.02
75.82
67.63
55.62
37.45
10.86
-25.50
-70.96
-122.25
-173.77
-218.95
-252.22
-270.69
-274.74
-267.28
-252.14
-232.64
-210.85
-187.84
-164.40
-141.46
-120.15
-101.25
-84.82
-70.20
-56.41
-42.74
-29.13
-16.08
-4.30
5.64
13.71
20.30
26.07
31.68
37.59
43.91
50.39
56.50
61.62
65.18
66.89
66.84
65.50
63.51
61.44
59.60
57.84
55.70
52.66
48.45
43.27
37.75
32.65
28.63
25.93
24.34
23.38
22.52
21.34
19.62
17.33
14.53
11.36
8.03
4.66
1.31
-2.17
-6.04
-10.56
-15.85
-21.70
-27.69
-33.30
-38.21
-42.36
-45.98
-49.55
-53.64
-58.76
-65.13
-72.58
-80.29
-86.90
-90.70
-90.15
-84.42
-73.73
-59.30
-42.90
-26.40
-11.20
1.89
12.64
21.17
27.76
32.74
36.46
39.26
41.42
43.18
44.66
45.96
47.16
48.33
49.56
50.90
52.32
53.80
55.26
56.60
57.74
58.51
58.74
58.21
56.75
54.30
50.97
47.06
42.98
39.14
35.74
32.86
30.36
28.16
26.24
24.68
23.56
22.80
22.12
21.21
19.83
17.96
15.83
13.75
11.90
10.19
8.32
5.90
2.66
-1.36
-5.88
-10.49
-14.79
-18.58
-21.93
-25.11
-28.44
-32.12
-36.14
-40.25
-44.11
-47.43
-50.17
-52.59
-55.20
-58.68
-63.66
-70.53
-79.21
-89.08
-98.90
-107.00
-111.54
-110.97
-104.50
-92.30
-75.57
-56.20
-36.27
-17.55
-1.21
12.32
23.13
31.63
38.31
43.61
47.89
51.39
54.26
56.55
58.21
59.16
59.34
58.80
57.79
56.66
55.83
55.59
56.04
56.99
58.08
58.92
59.24
58.97
58.16
56.97
55.51
53.81
51.82
49.52
46.90
43.98
40.79
37.38
33.83
30.31
27.01
24.15
21.74
19.67
17.70
15.62
13.39
11.16
9.12
7.34
5.72
3.92
1.65
-1.26
-4.69
-8.38
-12.05
-15.56
-18.99
-22.52
-26.42
-30.84
-35.83
-41.29
-46.95
-52.44
-57.40
-61.63
-65.12
-68.19
-71.44
-75.59
-81.31
-88.80
-97.61
-106.50
-113.60
-116.88
-114.70
-106.38
-92.46
-74.54
-54.74
-35.18
-17.40
-2.20
10.30
20.41
28.63
35.49
41.41
46.71
51.54
55.88
59.57
62.36
64.06
64.59
64.05
62.71
60.94
59.08
57.42
56.13
55.27
54.72
54.30
53.75
52.87
51.59
49.97
48.22
46.58
45.17
43.92
42.62
40.96
38.74
35.97
32.80
29.43
26.03
22.60
19.07
15.38
11.59
7.91
4.58
1.75
-0.60
-2.71
-4.88
-7.31
-10.04
-12.88
-15.55
-17.87
-19.84
-21.76
-24.05
-27.12
-31.16
-36.05
-41.41
-46.73
-51.68
-56.19
-60.51
-65.10
-70.52
-77.21
-85.35
-94.68
-104.35
-112.87
-118.35
-118.89
-113.21
-101.12
-83.67
-62.90
-41.19
-20.68
-2.72
12.14
23.99
33.23
40.29
45.56
49.39
52.08
53.94
55.21
56.03
56.40
56.30
55.77
54.94
54.13
53.67
53.80
54.55
55.75
57.06
58.11
58.62
58.41
57.45
55.81
53.60
51.01
48.19
45.23
42.18
39.01
35.64
32.07
28.31
24.47
20.70
17.20
14.19
11.77
9.99
8.72
7.69
6.54
5.01
3.03
0.64
-1.93
-4.54
-7.14
-9.86
-12.93
-16.57
-20.90
-25.86
-31.24
-36.74
-42.08
-47.08
-51.64
-55.75
-59.47
-62.98
-66.59
-70.81
-76.11
-82.76
-90.43
-98.09
-104.00
-106.23
-103.30
-94.65
-80.94
-63.80
-45.33
-27.46
-11.53
1.81
12.49
20.79
27.10
31.81
35.29
37.94
40.09
42.01
43.86
45.65
47.34
48.77
49.84
50.46
50.65
50.53
50.27
50.06
49.95
49.82
49.37
48.24
46.18
43.19
39.62
35.99
32.84
30.45
28.79
27.53
26.27
24.69
22.72
20.50
18.32
16.42
14.86
13.51
12.01
9.93
6.95
2.99
-1.67
-6.56
-11.16
-15.14
-18.51
-21.63
-25.01
-29.04
-33.84
-39.12
-44.39
-49.18
-53.21
-56.56
-59.61
-62.88
-66.89
-72.02
-78.31
-85.36
-92.22
-97.48
-99.50
-96.87
-88.90
-75.92
-59.30
-41.00
-23.04
-6.97
6.42
17.01
25.17
31.37
36.05
39.56
42.23
44.39
46.35
48.28
50.17
51.81
52.89
53.20
52.74
51.80
50.79
50.08
49.80
49.75
49.55
48.77
47.19
44.88
42.15
39.39
36.92
34.88
33.25
31.86
30.53
29.08
27.35
25.21
22.59
19.57
16.36
13.30
10.68
8.63
7.00
5.40
3.36
0.59
-2.97
-7.03
-11.18
-15.01
-18.37
-21.37
-24.38
-27.78
-31.83
-36.50
-41.52
-46.45
-50.91
-54.73
-58.01
-61.14
-64.67
-69.22
-75.33
-83.15
-92.32
-101.73
-109.62
-113.97
-112.99
-105.79
-92.72
-75.28
-55.69
-36.23
-18.57
-3.58
8.68
18.66
26.95
34.09
40.38
45.98
50.85
54.88
57.90
59.73
60.31
59.75
58.34
56.52
54.77
53.45
52.69
52.42
52.44
52.55
52.58
52.44
52.07
51.43
50.50
49.30
47.95
46.55
45.18
43.75
42.02
39.74
36.71
32.96
28.72
24.36
20.23
16.55
13.37
10.59
8.10
5.80
3.69
1.84
0.27
-1.04
-2.24
-3.59
-5.32
-7.58
-10.31
-13.29
-16.28
-19.19
-22.16
-25.56
-29.83
-35.14
-41.31
-47.82
-53.99
-59.28
-63.56
-67.12
-70.54
-74.48
-79.50
-85.81
-93.17
-100.80
-107.33
-111.08
-110.42
-104.30
-92.67
-76.58
-57.93
-38.91
-21.40
-6.56
5.25
14.29
21.15
26.53
31.02
35.07
38.99
42.92
46.75
50.29
53.25
55.43
56.79
57.51
57.89
58.19
58.57
58.98
59.26
59.17
58.58
57.44
55.74
53.51
50.77
47.57
44.04
40.45
37.12
34.33
32.19
30.54
29.16
27.81
26.43
25.13
24.05
23.24
22.51
21.53
19.95
17.61
14.59
11.14
7.53
3.91
0.26
-3.52
-7.49
-11.57
-15.53
-19.10
-22.09
-24.51
-26.61
-28.79
-31.42
-34.69
-38.49
-42.47
-46.18
-49.36
-52.07
-54.78
-58.21
-63.08
-69.81
-78.36
-88.05
-97.58
-105.24
-109.22
-108.08
-101.20
-88.96
-72.78
-54.62
-36.46
-19.81
-5.41
6.71
16.91
25.62
33.15
39.60
44.97
49.20
52.26
54.19
55.07
55.03
54.28
53.07
51.70
50.46
49.64
49.38
49.69
50.43
51.31
52.04
52.37
52.19
51.51
50.47
49.19
47.79
46.24
44.46
42.34
39.79
36.82
33.51
30.05
26.63
23.39
20.41
17.71
15.25
12.98
10.84
8.86
7.10
5.64
4.57
3.81
3.16
2.30
0.90
-1.23
-4.03
-7.29
-10.71
-14.16
-17.68
-21.50
-25.92
-31.09
-36.90
-43.01
-48.91
-54.16
-58.57
-62.22
-65.51
-69.02
-73.31
-78.80
-85.47
-92.81
-99.68
-104.52
-105.69
-101.92
-92.83
-79.06
-62.19
-44.27
-27.25
-12.47
-0.45
8.95
16.33
22.39
27.67
32.52
37.06
41.27
45.07
48.36
51.09
53.27
54.92
56.14
57.07
57.83
58.51
59.12
59.59
59.76
59.44
58.44
56.65
54.05
50.77
47.09
43.36
39.98
37.19
35.07
33.45
32.08
30.69
29.12
27.45
25.91
24.74
24.05
23.75
23.54
23.03
21.92
20.07
17.53
14.47
11.09
7.59
4.14
0.84
-2.27
-5.22
-8.07
-10.90
-13.70
-16.38
-18.83
-20.94
-22.75
-24.42
-26.19
-28.30
-30.88
-33.90
-37.21
-40.63
-44.02
-47.39
-51.01
-55.30
-60.82
-67.96
-76.64
-86.11
-94.90
-101.08
-102.83
-99.00
-89.51
-75.38
-58.41
-40.64
-23.80
-8.97
3.46
13.62
21.86
28.52
33.84
37.93
40.89
42.86
44.02
44.67
44.99
45.16
45.23
45.23
45.22
45.31
45.65
46.31
47.28
48.34
49.21
49.64
49.48
48.77
47.62
46.18
44.54
42.70
40.60
38.14
35.30
32.09
28.66
25.19
21.94
19.09
16.79
15.04
13.71
12.61
11.50
10.22
8.73
7.09
5.42
3.82
2.26
0.60
-1.35
-3.76
-6.62
-9.84
-13.23
-16.64
-20.02
-23.42
-26.91
-30.53
-34.28
-38.12
-41.99
-45.87
-49.75
-53.60
-57.42
-61.34
-65.62
-70.68
-76.91
-84.36
-92.48
-99.99
-105.09
-106.01
-101.62
-91.91
-78.03
-61.87
-45.51
-30.51
-17.65
-6.92
2.16
10.18
17.59
24.58
31.11
37.07
42.32
46.74
50.30
52.96
54.74
55.67
55.82
55.35
54.48
53.51
52.69
52.14
51.77
51.37
50.64
49.41
47.68
45.66
43.65
41.89
40.50
39.39
38.34
37.16
35.77
34.16
32.40
30.56
28.61
26.55
24.36
22.06
19.73
17.38
15.01
12.55
9.96
7.28
4.65
2.26
0.23
-1.41
-2.80
-4.13
-5.64
-7.49
-9.71
-12.20
-14.78
-17.29
-19.64
-21.89
-24.28
-27.13
-30.71
-35.18
-40.40
-46.05
-51.65
-56.74
-61.00
-64.39
-67.17
-69.89
-73.23
-77.81
-83.91
-91.15
-98.42
-104.00
-106.06
-103.17
-94.86
-81.81
-65.69
-48.61
-32.52
-18.69
-7.57
1.20
8.37
14.74
20.84
26.84
32.65
38.03
42.82
46.95
50.39
53.16
55.22
56.58
57.33
57.65
57.80
57.99
58.25
58.48
58.39
57.73
56.33
54.19
51.47
48.45
45.46
42.76
40.51
38.74
37.38
36.30
35.42
34.66
33.98
33.29
32.47
31.38
29.91
28.05
25.87
23.47
20.94
18.32
15.62
12.85
10.09
7.43
4.99
2.84
0.99
-0.60
-2.02
-3.37
-4.76
-6.30
-8.02
-9.94
-11.97
-13.99
-15.94
-17.89
-20.07
-22.83
-26.53
-31.32
-37.07
-43.32
-49.47
-54.97
-59.57
-63.41
-66.98
-70.96
-75.95
-82.19
-89.47
-96.96
-103.32
-106.92
-106.21
-100.20
-88.87
-73.31
-55.47
-37.64
-21.76
-8.93
0.72
7.85
13.42
18.30
23.02
27.75
32.41
36.81
40.79
44.25
47.11
49.35
50.97
52.03
52.65
53.01
53.31
53.70
54.18
54.62
54.76
54.30
53.04
50.94
48.16
45.00
41.81
38.87
36.30
34.10
32.20
30.52
29.01
27.71
26.68
25.95
25.48
25.13
24.73
24.06
22.91
21.14
18.74
15.83
12.63
9.42
6.36
3.51
0.77
-2.03
-4.99
-8.11
-11.22
-14.12
-16.58
-18.59
-20.29
-21.96
-23.91
-26.36
-29.36
-32.83
-36.60
-40.52
-44.50
-48.49
-52.53
-56.69
-61.20
-66.38
-72.56
-79.87
-87.93
-95.61
-101.22
-102.85
-99.11
-89.56
-75.05
-57.40
-38.83
-21.29
-6.00
6.59
16.72
24.82
31.40
36.80
41.26
44.91
47.81
50.03
51.67
52.89
53.92
54.94
56.07
57.28
58.53
59.78
61.08
62.51
64.14
65.82
67.28
68.15
68.17
67.26
65.60
63.47
61.19
58.93
56.69
54.32
51.66
48.58
45.08
41.18
36.86
31.99
26.35
19.85
12.70
5.50
-0.92
-5.99
-9.79
-13.20
-17.63
-24.29
-33.48
-44.36
-55.23
-64.27
-70.36
-73.37
-73.94
-72.85
-70.51
-66.85
-61.73
-55.41
-48.72
-42.80
-38.57
-36.32
-35.77
-36.51
-38.43
-41.93
-47.72
-56.17
-66.93
-78.62
-89.20
-96.46
-98.55
-94.54
-84.54
-69.72
-52.00
-33.56
-16.33
-1.52
10.57
20.46
29.10
37.46
46.16
55.29
64.52
73.29
81.13
87.81
93.60
99.09
105.11
112.34
121.06
130.94
141.02
149.91
156.10
158.33
155.93
148.99
138.37
125.49
112.05
99.63
89.33
81.60
76.17
72.31
69.23
66.40
63.84
61.96
61.15
61.32
61.75
61.19
58.43
52.89
44.88
35.42
25.70
16.39
7.37
-2.11
-13.05
-26.15
-41.51
-58.61
-76.18
-92.23
-104.07
-108.81
-104.43
-91.00
-71.29
-50.41
-34.37
-27.96
-33.33
-49.33
-72.41
-98.26
-123.43
-146.33
-167.05
-186.39
-204.71
-221.23
-234.22
-241.90
-243.66
-240.66
-235.64
-231.65
-230.63
-232.41
-234.90
-235.29
-231.50
-223.05
-210.94
-196.89
-182.26
-167.50
-152.24
-135.89
-118.32
-100.08
-82.29
-66.08
-52.04
-39.92
-28.77
-17.33
-4.56
9.91
25.71
41.89
57.25
70.82
82.11
91.27
98.93
106.00
113.27
121.07
129.17
136.84
143.13
147.34
149.39
149.97
150.41
152.13
156.03
162.13
169.47
176.45
181.27
182.47
179.24
171.38
159.19
143.13
123.66
101.30
76.85
51.65
27.56
6.49
-10.30
-22.92
-32.86
-42.41
-53.58
-67.05
-81.86
-96.02
-107.66
-116.11
-122.22
-127.73
-134.19
-141.90
-149.65
-155.10
-155.85
-150.34
-138.42
-121.32
-101.17
-80.33
-60.81
-43.88
-30.05
-19.11
-10.41
-2.97
4.20
12.04
21.24
32.08
44.44
57.88
71.85
85.92
99.83
113.45
126.62
138.94
149.93
159.15
166.36
171.58
174.84
176.06
174.88
170.93
164.18
155.08
144.60
133.74
123.16
112.95
102.84
92.57
82.22
72.25
63.27
55.69
49.35
43.66
37.70
30.65
22.05
11.96
0.92
-10.27
-20.79
-30.10
-38.09
-45.03
-51.47
-57.88
-64.45
-71.05
-77.40
-83.20
-88.45
-93.40
-98.49
-104.23
-111.01
-118.95
-127.76
-136.68
-144.38
-149.24
-149.67
-144.51
-133.48
-117.30
-97.51
-76.06
-54.84
-35.21
-17.87
-2.84
10.29
22.10
33.03
43.26
52.66
60.91
67.70
72.82
76.31
78.31
79.07
78.88
78.05
76.95
75.92
75.27
75.09
75.27
75.46
75.27
74.33
72.47
69.68
66.09
61.92
57.46
52.98
48.69
44.66
40.83
36.99
32.87
28.34
23.44
18.37
13.48
9.07
5.23
1.81
-1.51
-5.13
-9.32
-14.07
-19.14
-24.13
-28.72
-32.71
-36.01
-38.53
-40.12
-40.66
-40.13
-38.77
-36.98
-35.10
-33.21
-31.09
-28.40
-25.08
-21.58
-18.82
-17.69
-18.50
-20.57
-22.34
-22.06
-18.46
-11.43
-1.92
8.44
18.05
25.89
31.65
35.61
38.21
39.84
40.69
40.84
40.40
39.51
38.33
36.95
35.42
33.70
31.73
29.46
26.94
24.32
21.86
19.93
18.82
18.63
19.14
19.92
20.49
20.54
20.06
19.31
18.67
18.34
18.30
18.34
18.13
17.47
16.37
15.00
13.68
12.71
12.31
12.55
13.33
14.40
15.43
16.11
16.19
15.59
14.41
12.86
11.12
9.33
7.48
5.43
3.02
0.16
-3.15
-6.72
-10.34
-13.75
-16.78
-19.36
-21.57
-23.60
-25.73
-28.22
-31.25
-34.80
-38.71
-42.75
-46.72
-50.55
-54.35
-58.38
-62.97
-68.40
-74.67
-81.40
-87.67
-92.23
-93.70
-91.08
-84.12
-73.41
-60.18
-45.94
-31.97
-19.13
-7.82
1.86
10.02
16.84
22.57
27.49
31.79
35.54
38.60
40.76
41.86
41.90
41.13
39.93
38.76
37.95
37.65
37.88
38.49
39.26
39.94
40.34
40.28
39.70
38.61
37.12
35.40
33.60
31.83
30.06
28.19
26.04
23.52
20.61
17.40
14.06
10.71
7.44
4.31
1.41
-1.19
-3.41
-5.23
-6.75
-8.12
-9.52
-11.02
-12.60
-14.19
-15.69
-17.12
-18.63
-20.46
-22.81
-25.73
-29.14
-32.81
-36.52
-40.09
-43.47
-46.69
-49.82
-52.95
-56.27
-60.07
-64.64
-70.13
-76.21
-81.93
-85.91
-86.60
-82.91
-74.60
-62.42
-47.85
-32.68
-18.47
-6.23
3.61
11.14
16.75
20.92
24.14
26.79
29.09
31.11
32.79
33.95
34.44
34.18
33.24
31.85
30.38
29.20
28.61
28.72
29.43
30.51
31.73
32.86
33.81
34.51
34.94
35.10
34.97
34.53
33.78
32.70
31.28
29.53
27.46
25.09
22.40
19.32
15.77
11.71
7.21
2.41
-2.49
-7.30
-11.82
-15.90
-19.48
-22.57
-25.38
-28.25
-31.61
-35.77
-40.77
-46.31
-51.79
-56.58
-60.25
-62.83
-64.82
-67.05
-70.33
-75.15
-81.31
-87.89
-93.49
-96.52
-95.73
-90.55
-81.24
-68.78
-54.58
-40.12
-26.56
-14.65
-4.59
3.82
10.96
17.25
22.92
28.03
32.51
36.23
39.08
41.02
42.07
42.26
41.68
40.50
39.01
37.61
36.67
36.44
36.92
37.83
38.73
39.20
38.97
38.05
36.61
34.90
33.17
31.50
29.92
28.33
26.59
24.53
21.97
18.77
14.90
10.46
5.71
0.96
-3.49
-7.47
-10.95
-14.02
-16.81
-19.42
-21.84
-23.98
-25.69
-26.86
-27.54
-27.90
-28.22
-28.66
-29.17
-29.52
-29.39
-28.67
-27.56
-26.63
-26.60
-28.13
-31.62
-37.11
-44.18
-52.02
-59.38
-64.76
-66.73
-64.31
-57.35
-46.58
-33.43
-19.62
-6.66
4.42
13.15
19.48
23.69
26.22
27.58
28.26
28.62
28.85
28.92
28.72
28.14
27.12
25.71
24.06
22.35
20.84
19.79
19.51
20.15
21.73
24.01
26.58
28.98
30.85
32.01
32.46
32.37
31.95
31.39
30.83
30.30
29.72
28.97
27.88
26.34
24.35
22.00
19.44
16.78
14.07
11.25
8.24
5.07
1.83
-1.36
-4.35
-7.08
-9.60
-12.04
-14.55
-17.29
-20.34
-23.73
-27.42
-31.26
-35.11
-38.86
-42.48
-46.10
-50.04
-54.67
-60.45
-67.70
-76.40
-85.94
-95.09
-102.10
-105.11
-102.73
-94.53
-81.20
-64.36
-46.04
-28.15
-12.01
1.76
13.12
22.38
29.97
36.26
41.59
46.19
50.18
53.55
56.20
58.01
58.91
59.03
58.64
58.13
57.88
58.08
58.73
59.65
60.54
61.10
61.10
60.40
58.99
56.96
54.52
51.89
49.31
46.90
44.63
42.38
39.91
37.07
33.77
30.05
26.09
22.12
18.40
15.10
12.31
9.97
7.97
6.14
