1536307677.00
64.000000
-0.00
-0.00
-0.00
-0.00
-0.00
-0.00
-0.00
-0.00
-0.00
-0.00
0.00
0.01
0.01
-0.00
-0.03
-0.05
-0.05
0.00
0.13
0.36
0.66
1.01
1.37
1.72
2.06
2.40
2.79
3.24
3.80
4.42
5.06
5.66
6.20
6.68
7.15
7.68
8.31
9.14
10.09
11.04
11.88
12.56
13.14
13.76
14.65
15.96
17.91
20.32
22.90
25.38
27.58
29.57
31.68
34.32
37.81
42.54
48.15
54.10
59.83
64.97
69.58
74.14
79.34
85.71
93.76
103.00
112.62
121.73
129.77
136.75
143.30
150.75
157.77
166.64
177.95
191.79
206.97
220.57
228.25
225.36
208.53
176.87
132.76
80.05
23.07
-34.94
-92.44
-149.16
-205.23
-260.37
-313.74
-363.87
-409.83
-450.91
-486.50
-515.74
-537.23
-549.22
-549.96
-538.37
-514.21
-478.67
-433.88
-382.45
-327.02
-269.84
-212.63
-156.66
-102.95
-52.37
-5.90
35.58
71.43
101.35
125.50
144.38
158.69
169.15
176.37
180.75
182.57
182.07
179.51
175.23
169.65
163.18
156.15
148.81
141.30
133.69
126.02
118.33
110.69
103.16
95.80
88.68
81.83
75.25
68.95
62.95
57.25
51.86
46.78
42.03
37.59
33.45
29.61
26.07
22.81
19.83
17.11
14.67
12.48
10.53
8.83
7.36
6.09
5.00
4.06
3.25
2.54
1.94
1.43
1.03
0.73
0.51
0.34
0.19
0.04
-0.13
-0.30
-0.44
-0.54
-0.56
-0.54
-0.50
-0.49
-0.56
-0.70
-0.89
-1.06
-1.16
-1.14
-1.05
-0.95
-0.98
-1.20
-1.64
-2.18
-2.69
-3.00
-3.03
-2.86
-2.66
-2.70
-3.15
-4.03
-5.17
-6.23
-6.89
-7.00
-6.66
-6.23
-6.15
-6.77
-8.11
-9.89
-11.58
-12.70
-12.99
-12.55
-11.82
-11.31
-11.50
-12.65
-14.84
-17.85
-21.06
-23.39
-23.49
-20.22
-13.18
-3.18
7.98
18.04
25.29
29.20
30.61
31.16
32.54
35.57
39.92
44.38
47.54
48.38
46.63
42.85
37.59
31.46
24.92
18.22
11.63
5.55
0.54
-2.99
-4.90
-5.46
-5.16
-4.50
-3.83
-3.28
-2.82
-2.35
-1.83
-1.25
-0.67
-0.24
-0.17
-0.64
-1.75
-3.43
-5.39
-7.23
-8.59
-9.30
-9.43
-9.21
-8.94
-8.76
-8.66
-8.48
-8.14
-7.66
-7.21
-7.00
-7.05
-7.13
-6.73
-5.33
-2.60
1.39
6.19
11.13
15.48
18.75
20.76
21.55
21.33
20.34
18.80
16.94
15.02
13.25
11.85
10.97
10.59
10.53
10.46
10.00
8.85
7.25
5.48
3.94
2.94
2.63
2.87
3.35
3.69
3.57
2.91
1.68
0.06
-1.79
-3.70
-5.61
-7.49
-9.33
-11.15
-12.96
-14.81
-16.78
-18.95
-21.41
-24.10
-26.85
-29.25
-30.76
-30.81
-29.04
-25.38
-20.20
-14.09
-7.81
-1.97
3.04
7.08
10.16
12.35
13.66
14.11
13.77
12.82
11.56
10.31
9.31
8.65
8.28
8.14
8.18
8.42
8.94
9.72
10.71
11.70
12.49
12.92
12.92
12.54
11.88
11.05
10.11
9.08
7.93
6.61
5.11
3.39
1.45
-0.71
-3.12
-5.80
-8.70
-11.64
-14.22
-15.91
-16.15
-14.64
-11.44
-6.99
-1.99
2.88
7.11
10.49
13.01
14.74
15.73
16.04
15.72
14.96
13.98
12.96
11.96
10.88
9.61
8.08
6.38
4.76
3.47
2.73
2.54
2.68
2.80
2.48
1.41
-0.50
-3.11
-6.09
-9.03
-11.60
-13.67
-15.26
-16.52
-17.64
-18.77
-20.03
-21.51
-23.27
-25.27
-27.26
-28.81
-29.39
-28.55
-26.08
-22.15
-17.20
-11.83
-6.57
-1.79
2.32
5.69
8.27
10.05
11.04
11.36
11.21
10.81
10.34
9.86
9.32
8.67
7.94
7.21
6.67
6.45
6.60
7.10
7.78
8.48
9.03
9.34
9.32
8.97
8.28
7.28
6.00
4.50
2.90
1.28
-0.29
-1.82
-3.40
-5.16
-7.21
-9.49
-11.76
-13.60
-14.57
-14.32
-12.72
-9.96
-6.40
-2.47
1.43
5.04
8.18
10.66
12.31
13.01
12.74
11.65
10.08
8.39
6.88
5.60
4.49
3.36
2.08
0.66
-0.79
-2.09
-3.17
-4.03
-4.74
-5.38
-5.97
-6.54
-7.12
-7.82
-8.79
-10.17
-11.94
-13.93
-15.86
-17.47
-18.67
-19.53
-20.32
-21.32
-22.72
-24.57
-26.71
-28.87
-30.68
-31.74
-31.72
-30.40
-27.73
-23.89
-19.28
-14.44
-9.90
-6.07
-3.14
-1.11
0.15
0.80
0.92
0.58
-0.20
-1.35
-2.74
-4.22
-5.61
-6.79
-7.68
-8.26
-8.53
-8.51
-8.21
-7.63
-6.83
-5.95
-5.12
-4.52
-4.21
-4.18
-4.34
-4.58
-4.84
-5.09
-5.33
-5.57
-5.86
-6.23
-6.78
-7.60
-8.76
-10.33
-12.31
-14.67
-17.27
-19.90
-22.21
-23.73
-23.99
-22.65
-19.70
-15.41
-10.29
-4.92
0.23
4.84
8.75
11.87
14.17
15.64
16.33
16.42
16.11
15.65
15.24
14.97
14.83
14.78
14.79
14.84
15.02
15.36
15.88
16.51
17.07
17.36
17.17
16.43
15.18
13.64
12.04
10.60
9.36
8.27
7.10
5.64
3.75
1.40
-1.27
-4.01
-6.54
-8.66
-10.36
-11.85
-13.46
-15.55
-18.28
-21.59
-25.10
-28.21
-30.31
-30.89
-29.69
-26.72
-22.30
-16.92
-11.18
-5.68
-0.87
2.98
5.84
7.89
9.41
10.68
11.84
12.94
13.89
14.64
15.23
15.82
16.60
17.71
19.14
20.74
22.34
23.80
25.12
26.41
27.75
29.20
30.72
32.26
33.73
35.01
35.88
36.02
35.00
32.46
28.21
22.29
14.94
6.58
-2.28
-11.10
-19.33
-26.55
-32.50
-37.25
-41.15
-44.68
-48.24
-52.00
-55.73
-58.89
-60.80
-60.83
-58.67
-54.37
-48.36
-41.29
-33.84
-26.60
-20.00
-14.26
-9.48
-5.63
-2.58
-0.11
2.00
3.97
5.88
7.72
9.41
10.92
12.27
13.57
14.90
16.25
17.55
18.68
19.56
20.17
20.51
20.61
20.41
19.82
18.74
17.15
15.08
12.67
10.09
7.47
4.95
2.57
0.36
-1.72
-3.79
-6.04
-8.65
-11.77
-15.44
-19.49
-23.55
-27.08
-29.50
-30.34
-29.35
-26.59
-22.43
-17.37
-11.97
-6.74
-2.07
1.79
4.65
6.49
7.37
7.47
7.06
6.38
5.58
4.72
3.78
2.70
1.53
0.38
-0.56
-1.12
-1.23
-0.91
-0.37
0.15
0.40
0.29
-0.18
-0.83
-1.48
-1.99
-2.38
-2.78
-3.35
-4.20
-5.32
-6.59
-7.82
-8.86
-9.65
-10.19
-10.53
-10.76
-10.91
-11.09
-11.47
-12.28
-13.73
-15.92
-18.70
-21.64
-24.08
-25.31
-24.76
-22.16
-17.63
-11.64
-4.85
2.02
8.40
13.92
18.43
21.95
24.62
26.56
27.91
28.79
29.35
29.77
30.26
30.93
31.83
32.88
33.94
34.93
35.83
36.73
37.72
38.77
39.71
40.23
40.04
39.00
37.22
34.97
32.58
30.32
28.28
26.43
24.69
23.00
21.34
19.68
17.94
16.05
13.94
11.64
9.26
6.92
4.71
2.62
0.57
-1.56
-3.81
-6.20
-8.69
-11.28
-13.98
-16.85
-20.00
-23.44
-27.11
-30.72
-33.83
-35.91
-36.43
-35.11
-31.95
-27.24
-21.50
-15.31
-9.22
-3.66
1.10
4.92
7.78
9.79
11.13
12.06
12.81
13.58
14.51
15.63
16.91
18.19
19.38
20.39
21.23
22.03
22.89
23.84
24.76
25.43
25.63
25.29
24.47
23.38
22.23
21.12
19.99
18.72
17.19
15.38
13.40
11.40
9.51
7.75
6.09
4.41
2.64
0.71
-1.41
-3.73
-6.23
-8.84
-11.45
-13.98
-16.36
-18.65
-21.04
-23.74
-26.89
-30.43
-34.03
-37.15
-39.14
-39.44
-37.76
-34.16
-29.00
-22.86
-16.40
-10.15
-4.48
0.39
4.39
7.50
9.77
11.35
12.44
13.28
14.10
15.00
15.99
16.98
17.89
18.69
19.44
20.25
21.17
22.22
23.26
24.15
24.73
24.90
24.62
23.95
23.03
21.95
20.81
19.59
18.21
16.54
14.50
12.14
9.62
7.15
4.92
2.99
1.29
-0.32
-2.02
-3.94
-6.19
-8.78
-11.65
-14.72
-17.81
-20.75
-23.45
-25.96
-28.46
-31.21
-34.41
-38.10
-42.01
-45.61
-48.23
-49.18
-47.99
-44.51
-39.01
-32.04
-24.30
-16.51
-9.25
-2.92
2.24
6.19
8.95
10.71
11.71
12.25
12.62
13.02
13.55
14.22
14.97
15.78
16.70
17.82
19.19
20.81
22.56
24.20
25.51
26.26
26.42
26.06
25.35
24.42
23.37
22.22
20.95
19.55
18.04
16.44
14.80
13.12
11.38
9.56
7.63
5.55
3.26
0.73
-2.04
-4.98
-7.98
-10.84
-13.43
-15.70
-17.76
-19.85
-22.26
-25.20
-28.71
-32.56
-36.23
-39.07
-40.38
-39.68
-36.80
-32.01
-25.87
-19.13
-12.56
-6.69
-1.83
1.97
4.86
7.01
8.63
9.87
10.88
11.78
12.69
13.65
14.67
15.69
16.61
17.35
17.91
18.37
18.85
19.47
20.24
21.07
21.77
22.13
22.02
21.45
20.56
19.52
18.48
17.42
16.24
14.80
13.00
10.89
8.60
6.31
4.16
2.18
0.32
-1.46
-3.19
-4.87
-6.43
-7.89
-9.31
-10.83
-12.63
-14.90
-17.76
-21.30
-25.49
-30.16
-34.98
-39.41
-42.82
-44.52
-44.07
-41.34
-36.62
-30.54
-23.84
-17.27
-11.34
-6.33
-2.26
0.96
3.49
5.52
7.20
8.70
10.14
11.67
13.32
15.09
16.88
18.56
20.01
21.18
22.07
22.81
23.51
24.23
24.89
25.30
25.27
24.69
23.58
22.11
20.49
18.87
17.29
15.70
14.03
12.23
10.32
8.35
6.31
4.16
1.79
-0.82
-3.62
-6.45
-9.13
-11.54
-13.71
-15.83
-18.17
-20.98
-24.37
-28.27
-32.38
-36.20
-39.12
-40.52
-39.94
-37.20
-32.51
-26.45
-19.78
-13.31
-7.60
-2.87
0.94
4.07
6.74
9.05
10.96
12.42
13.47
14.28
15.09
16.10
17.39
18.83
20.23
21.44
22.45
23.33
24.19
25.07
25.86
26.39
26.49
26.08
25.21
23.98
22.47
20.77
18.90
16.95
15.00
13.11
11.25
9.27
7.01
4.39
1.45
-1.61
-4.57
-7.30
-9.85
-12.38
-15.11
-18.21
-21.74
-25.66
-29.75
-33.69
-36.96
-38.99
-39.27
-37.52
-33.79
-28.55
-22.43
-16.16
-10.26
-5.04
-0.61
3.08
6.10
8.55
10.53
12.18
13.59
14.88
16.09
17.25
18.37
19.44
20.45
21.42
22.33
23.18
23.96
24.65
25.21
25.59
25.71
25.46
24.76
23.61
22.09
20.34
18.53
16.74
14.93
13.02
10.92
8.60
6.11
3.54
0.96
-1.63
-4.29
-7.07
-10.01
-13.05
-16.12
-19.14
-22.08
-24.97
-27.91
-31.05
-34.58
-38.66
-43.34
-48.45
-53.55
-58.02
-61.13
-62.29
-61.17
-57.81
-52.64
-46.33
-39.76
-33.74
-28.84
-25.32
-23.08
-21.72
-20.78
-19.86
-18.77
-17.45
-15.88
-13.94
-11.40
-7.99
-3.54
1.97
8.37
15.40
22.82
30.37
37.82
44.85
51.10
56.17
59.77
61.75
62.19
61.34
59.56
57.21
54.56
51.79
48.93
45.92
42.66
39.10
35.30
31.42
27.66
24.17
20.98
18.00
15.04
11.93
8.53
4.83
0.98
-2.86
-6.46
-9.73
-12.71
-15.59
-18.67
-22.21
-26.39
-31.15
-36.23
-41.08
-45.00
-47.25
-47.23
-44.67
-39.73
-32.98
-25.25
-17.44
-10.31
-4.34
0.33
3.82
6.42
8.47
10.28
12.04
13.84
15.71
17.58
19.45
21.26
22.99
24.61
26.04
27.29
28.31
29.15
29.84
30.37
30.70
30.72
30.36
29.58
28.41
26.97
25.42
23.91
22.50
21.18
19.85
18.40
16.75
14.90
12.87
10.77
8.69
6.67
4.70
2.72
0.63
-1.60
-4.02
-6.59
-9.22
-11.83
-14.36
-16.82
-19.32
-22.03
-25.12
-28.73
-32.89
-37.43
-42.04
-46.24
-49.45
-51.13
-50.84
-48.41
-43.98
-37.99
-31.09
-23.98
-17.28
-11.39
-6.50
-2.60
0.47
2.94
5.03
6.97
8.85
10.70
12.43
13.94
15.20
16.23
17.11
17.97
18.89
19.92
21.06
22.28
23.48
24.53
25.27
25.56
25.31
24.55
23.39
22.01
20.51
18.93
17.26
15.44
13.45
11.35
9.22
7.16
5.19
3.31
1.45
-0.43
-2.39
-4.47
-6.69
-9.05
-11.51
-13.99
-16.39
-18.71
-21.03
-23.64
-26.85
-30.83
-35.42
-40.07
-43.95
-46.16
-46.10
-43.60
-38.95
-32.79
-25.89
-18.97
-12.58
-7.08
-2.63
0.75
3.22
5.04
6.51
7.92
9.45
11.13
12.88
14.53
15.93
17.04
17.91
18.68
19.49
20.38
21.32
22.17
22.84
23.27
23.43
23.30
22.82
21.92
20.55
18.75
16.64
14.40
12.18
10.06
7.99
5.88
3.61
1.14
-1.47
-4.11
-6.68
-9.09
-11.36
-13.58
-15.88
-18.43
-21.35
-24.70
-28.42
-32.29
-35.89
-38.69
-40.11
-39.75
-37.47
-33.49
-28.30
-22.48
-16.60
-11.07
-6.17
-2.06
1.20
3.63
5.36
6.61
7.65
8.66
9.70
10.68
11.46
11.96
12.20
12.35
12.62
13.18
14.03
15.02
15.87
16.37
16.40
16.02
15.43
14.89
14.53
14.36
14.19
13.80
12.98
11.67
9.97
8.05
6.02
3.95
1.81
-0.42
-2.75
-5.18
-7.79
-10.72
-14.09
-17.93
-21.97
-25.71
-28.46
-29.67
-29.06
-26.74
-23.07
-18.56
-13.68
-8.78
-4.12
0.14
3.86
6.98
9.47
11.37
12.72
13.60
14.09
14.29
14.30
14.20
14.08
13.96
13.86
13.84
13.90
14.03
14.13
14.07
13.71
12.97
11.89
10.56
9.11
7.60
6.07
4.46
2.76
0.96
-0.93
-2.91
-5.00
-7.21
-9.49
-11.79
-14.04
-16.26
-18.50
-20.87
-23.38
-25.92
-28.21
-29.89
-30.56
-29.90
-27.73
-24.05
-19.07
-13.21
-7.04
-1.16
3.88
7.72
10.32
11.90
12.84
13.53
14.26
15.14
16.10
16.96
17.61
18.02
18.26
18.47
18.73
19.08
19.47
19.84
20.15
20.39
20.53
20.52
20.19
19.41
18.11
16.40
14.50
12.65
11.02
9.60
8.20
6.59
4.58
2.18
-0.44
-3.01
-5.32
-7.34
-9.29
-11.50
-14.31
-17.90
-22.12
-26.54
-30.51
-33.39
-34.61
-33.89
-31.24
-26.94
-21.49
-15.47
-9.50
-4.07
0.50
4.12
6.86
8.94
10.57
11.98
13.30
14.58
15.82
16.94
17.85
18.52
18.95
19.22
19.47
19.81
20.34
21.03
21.75
22.28
22.41
22.01
21.12
19.89
18.54
17.26
16.08
14.91
13.56
11.92
9.97
7.84
5.71
3.71
1.85
0.01
-1.94
-4.08
-6.37
-8.72
-11.00
-13.16
-15.22
-17.30
-19.53
-22.04
-24.92
-28.21
-31.81
-35.45
-38.67
-40.90
-41.55
-40.23
-36.86
-31.73
-25.44
-18.79
-12.49
-7.04
-2.62
0.86
3.64
5.94
7.93
9.65
11.11
12.40
13.58
14.76
15.98
17.16
18.17
18.94
19.47
19.88
20.29
20.78
21.33
21.80
22.03
21.91
21.37
20.46
19.28
17.95
16.61
15.35
14.20
13.13
12.07
10.93
9.69
8.34
6.94
5.55
4.19
2.88
1.62
0.45
-0.64
-1.69
-2.82
-4.18
-5.86
-7.86
-10.08
-12.36
-14.55
-16.62
-18.64
-20.79
-23.24
-26.10
-29.37
-32.88
-36.36
-39.37
-41.44
-42.15
-41.22
-38.66
-34.71
-29.80
-24.47
-19.18
-14.30
-10.10
-6.72
-4.25
-2.69
-1.97
-1.90
-2.21
-2.55
-2.63
-2.29
-1.55
-0.55
0.49
1.47
2.40
3.46
4.89
6.79
9.13
11.63
13.91
15.66
16.72
17.13
17.10
16.85
16.53
16.19
15.80
15.35
14.90
14.57
14.46
14.55
14.76
14.91
14.91
14.72
14.43
14.12
13.78
13.30
12.48
11.23
9.56
7.60
5.51
3.35
1.07
-1.48
-4.47
-7.99
-11.98
-16.23
-20.38
-23.96
-26.51
-27.68
-27.31
-25.51
-22.61
-19.06
-15.35
-11.87
-8.92
-6.65
-5.09
-4.17
-3.73
-3.59
-3.54
-3.47
-3.33
-3.20
-3.19
-3.47
-4.13
-5.17
-6.44
-7.66
-8.56
-8.90
-8.65
-7.95
-7.07
-6.33
-5.99
-6.19
-6.98
-8.30
-10.01
-11.99
-14.15
-16.45
-18.84
-21.26
-23.62
-25.77
-27.55
-28.78
-29.35
-29.21
-28.43
-27.13
-25.52
-23.82
-22.19
-20.75
-19.49
-18.37
-17.33
-16.40
-15.64
-15.15
-15.04
-15.26
-15.59
-15.60
-14.70
-12.28
-7.84
-1.18
7.51
17.74
28.80
39.98
50.67
60.46
69.03
76.16
81.62
85.24
86.98
86.97
85.51
82.98
79.84
76.46
73.12
69.96
67.01
64.18
61.38
58.50
55.47
52.28
48.98
45.61
42.26
38.96
35.73
32.58
29.50
26.51
23.59
20.77
18.04
15.34
12.65
9.94
7.18
4.39
1.60
-1.15
-3.83
-6.37
-8.70
-10.75
-12.48
-14.00
-15.54
-17.42
-19.92
-23.12
-26.80
-30.45
-33.46
-35.28
-35.57
-34.39
-32.01
-28.86
-25.32
-21.69
-18.19
-14.98
-12.19
-9.95
-8.30
-7.14
-6.26
-5.40
-4.32
-2.94
-1.31
0.41
2.05
3.49
4.73
5.76
6.61
7.33
8.06
9.04
10.60
12.93
15.90
18.86
20.77
20.47
17.17
10.70
1.61
-9.11
-20.32
-31.11
-40.84
-49.13
-55.77
-60.63
-63.67
-65.00
-64.81
-63.32
-60.68
-57.00
-52.43
-47.30
-42.29
-38.29
-36.16
-36.54
-39.60
-44.94
-51.71
-58.69
-64.57
-68.14
-68.47
-65.17
-58.33
-48.48
-36.40
-23.00
-9.23
3.84
14.99
23.00
26.95
26.56
22.42
15.91
8.61
1.77
-4.13
-9.38
-14.58
-20.13
-25.79
-30.72
-33.89
-34.60
-32.82
-29.19
-24.73
-20.37
-16.60
-13.50
-10.90
-8.63
-6.72
-5.36
-4.75
-4.94
-5.75
-6.84
-7.87
-8.58
-8.93
-9.08
-9.27
-9.76
-10.73
-12.30
-14.44
-17.02
-19.84
-22.62
-25.07
-26.85
-27.73
-27.49
-26.10
-23.59
-20.11
-15.87
-11.18
-6.39
-1.87
1.98
4.95
6.95
8.14
8.82
9.34
9.95
10.75
11.71
12.68
13.52
14.16
14.61
14.96
15.30
15.69
16.10
16.48
16.80
17.03
17.24
17.43
17.56
17.48
17.02
16.04
14.56
12.72
10.76
8.89
7.15
5.47
3.67
1.63
-0.66
-3.14
-5.70
-8.30
-10.99
-13.91
-17.11
-20.50
-23.78
-26.53
-28.30
-28.82
-28.05
-26.19
-23.61
-20.74
-17.96
-15.52
-13.58
-12.20
-11.35
-10.92
-10.76
-10.66
-10.42
-9.82
-8.67
-6.80
-4.10
-0.48
4.07
9.49
15.60
22.14
28.75
35.06
40.67
45.30
48.76
50.96
51.92
51.74
50.56
48.59
46.04
43.12
39.97
36.68
33.29
29.82
26.30
22.77
19.25
15.75
12.16
8.40
4.38
0.10
-4.23
-8.27
-11.56
-13.65
-14.23
-13.27
-10.99
-7.81
-4.22
-0.67
2.52
5.22
7.44
9.27
10.80
12.12
13.29
14.35
15.34
16.30
17.18
17.93
18.46
18.72
18.73
18.60
18.50
18.56
18.84
19.22
19.55
19.66
19.46
18.98
18.32
17.57
16.73
15.76
14.50
12.88
10.86
8.50
5.94
3.34
0.81
-1.66
-4.19
-6.92
-9.94
-13.19
-16.42
-19.21
-21.10
-21.70
-20.87
-18.74
-15.63
-11.99
-8.18
-4.53
-1.22
1.66
4.07
6.05
7.70
9.14
10.43
11.58
12.53
13.23
13.68
13.96
14.21
14.53
14.94
15.36
15.70
15.87
15.89
15.83
15.76
15.68
15.50
15.10
14.40
13.39
12.13
10.73
9.30
7.89
6.48
5.01
3.44
1.72
-0.16
-2.24
-4.54
-7.04
-9.70
-12.31
-14.58
-16.14
-16.70
-16.12
-14.43
-11.86
-8.73
-5.35
-1.99
1.14
3.90
6.19
8.01
9.41
10.49
11.31
11.90
12.21
12.19
11.87
11.40
11.03
10.99
11.36
12.07
12.88
13.52
13.83
13.76
13.38
12.78
12.01
11.06
9.90
8.53
7.02
5.47
3.97
2.50
0.99
-0.65
-2.45
-4.37
-6.32
-8.22
-10.10
-12.04
-14.15
-16.51
-19.07
-21.63
-23.91
-25.51
-26.12
-25.48
-23.56
-20.51
-16.67
-12.45
-8.27
-4.43
-1.08
1.70
3.91
5.59
6.80
7.64
8.27
8.82
9.40
10.05
10.79
11.61
12.48
13.38
14.24
15.02
15.63
16.06
16.30
16.39
16.33
16.07
15.52
14.62
13.40
11.94
10.37
8.77
7.13
5.40
3.48
1.36
-0.91
-3.18
-5.36
-7.45
-9.59
-11.93
-14.53
-17.23
-19.62
-21.21
-21.52
-20.37
-17.88
-14.45
-10.60
-6.77
-3.23
-0.06
2.79
5.41
7.84
10.09
12.16
14.02
15.67
17.13
18.38
19.36
20.00
20.23
20.09
19.73
19.39
19.29
19.51
19.89
20.15
19.94
19.07
17.50
15.41
13.05
10.66
8.37
6.22
4.19
2.23
0.31
-1.58
-3.45
-5.33
-7.27
-9.31
-11.47
-13.74
-16.09
-18.51
-20.99
-23.53
-26.06
-28.37
-30.13
-30.97
-30.58
-28.89
-26.09
-22.55
-18.75
-15.11
-11.90
-9.23
-7.08
-5.33
-3.85
-2.52
-1.25
0.01
1.26
2.48
3.63
4.65
5.50
6.17
6.67
7.07
7.46
7.91
8.45
9.08
9.77
10.45
11.03
11.42
11.52
11.26
10.59
9.57
8.28
6.87
5.46
4.14
2.90
1.67
0.37
-1.08
-2.68
-4.39
-6.14
-7.83
-9.41
-10.87
-12.22
-13.57
-15.08
-16.88
-19.05
-21.50
-24.03
-26.27
-27.80
-28.24
-27.40
-25.26
-22.10
-18.31
-14.37
-10.68
-7.48
-4.85
-2.69
-0.86
0.79
2.33
3.75
5.00
6.02
6.81
7.40
7.87
8.33
8.86
9.56
10.44
11.45
12.51
13.51
14.38
15.06
15.52
15.68
15.51
14.94
14.04
12.92
11.79
10.82
10.05
9.36
8.60
7.63
6.46
5.26
4.14
3.17
2.24
1.15
-0.26
-1.98
-3.88
-5.76
-7.46
-8.95
-10.33
-11.76
-13.43
-15.48
-17.93
-20.70
-23.50
-25.93
-27.49
-27.79
-26.70
-24.37
-21.17
-17.56
-13.92
-10.49
-7.38
-4.60
-2.19
-0.18
1.43
2.67
3.62
4.38
5.04
5.68
6.36
7.11
7.95
8.86
9.82
10.81
11.77
12.66
13.39
13.86
13.98
13.70
13.07
12.25
11.41
10.70
10.13
9.59
8.92
7.95
6.65
5.09
3.44
1.89
0.54
-0.62
-1.67
-2.74
-3.91
-5.20
-6.54
-7.88
-9.20
-10.50
-11.84
-13.22
-14.64
-16.10
-17.66
-19.47
-21.62
-24.13
-26.77
-29.14
-30.70
-30.98
-29.77
-27.15
-23.51
-19.36
-15.21
-11.44
-8.27
-5.76
-3.86
-2.43
-1.29
-0.21
0.97
2.30
3.75
5.19
6.46
7.48
8.25
8.89
9.51
10.22
11.10
12.15
13.32
14.49
15.52
16.18
16.32
15.89
14.93
13.62
12.16
10.71
9.40
8.27
7.32
6.49
5.68
4.75
3.61
2.22
0.66
-0.95
-2.48
-3.85
-5.09
-6.25
-7.45
-8.82
-10.43
-12.36
-14.66
-17.32
-20.30
-23.50
-26.78
-29.95
-32.79
-35.00
-36.23
-36.21
-34.78
-32.01
-28.22
-23.87
-19.40
-15.21
-11.49
-8.31
-5.65
-3.47
-1.70
-0.24
1.03
2.27
3.59
5.05
6.62
8.20
9.68
10.98
12.09
13.04
13.93
14.83
15.82
16.87
17.86
18.66
19.14
19.22
18.94
18.39
17.72
17.04
16.40
15.77
15.12
14.37
13.46
12.38
11.16
9.86
8.55
7.28
6.06
4.85
3.54
2.09
0.53
-1.05
-2.51
-3.80
-4.96
-6.14
-7.56
-9.40
-11.75
-14.58
-17.78
-21.08
-24.18
-26.66
-28.10
-28.14
-26.58
-23.53
-19.33
-14.57
-9.84
-5.63
-2.13
0.68
3.00
5.03
6.91
8.64
10.14
11.37
12.33
13.12
13.87
14.72
15.69
16.76
17.82
18.83
19.79
20.73
21.71
22.69
23.54
24.08
24.13
23.60
22.58
21.25
19.82
18.44
17.12
15.77
14.27
12.57
10.74
8.94
7.33
5.96
4.71
3.37
1.77
-0.17
-2.34
-4.52
-6.52
-8.25
-9.83
-11.44
-13.27
-15.44
-17.94
-20.67
-23.46
-26.10
-28.32
-29.85
-30.39
-29.71
-27.72
-24.51
-20.35
-15.64
-10.82
-6.28
-2.34
0.82
3.13
4.64
5.50
5.92
6.16
6.45
6.91
7.57
8.35
9.15
9.87
10.47
10.98
11.42
11.86
12.33
12.85
13.41
13.94
14.31
14.41
14.13
13.47
12.52
11.45
10.42
9.48
8.60
7.61
6.39
4.86
3.07
1.15
-0.71
-2.41
-3.94
-5.35
-6.76
-8.25
-9.88
-11.70
-13.80
-16.24
-18.99
-21.88
-24.52
-26.45
-27.27
-26.74
-24.90
-21.97
-18.30
-14.22
-10.05
-6.06
-2.47
0.56
2.93
4.65
5.81
6.57
7.10
7.58
8.13
8.86
9.78
10.87
12.04
13.16
14.14
14.91
15.48
15.87
16.14
16.30
16.32
16.13
15.63
14.74
13.46
11.81
9.98
8.15
6.50
5.07
3.83
2.58
1.14
-0.62
-2.77
-5.27
-7.97
-10.59
-12.73
-13.99
-14.26
-13.83
-13.49
-14.17
-16.47
-20.31
-24.83
-28.74
-30.90
-30.78
-28.64
-25.24
-21.41
-17.61
-13.89
-10.12
-6.25
-2.52
0.61
2.77
3.83
3.99
3.73
3.53
3.64
4.02
4.42
4.58
4.38
3.94
3.55
3.49
3.90
4.71
5.71
6.57
7.02
6.94
6.31
5.21
3.78
2.16
0.48
-1.20
-2.93
-4.86
-7.12
-9.78
-12.76
-15.85
-18.82
-21.52
-24.02
-26.51
-29.22
-32.27
-35.55
-38.75
-41.46
-43.36
-44.29
-44.27
-43.52
-42.26
-40.76
-39.26
-37.86
-36.62
-35.62
-34.88
-34.47
-34.51
-35.13
-36.43
-38.44
-41.00
-43.86
-46.76
-49.42
-51.64
-53.19
-53.83
-53.48
-52.41
-51.30
-50.90
-51.64
-53.12
-54.12
-53.10
-48.92
-41.50
-31.85
-21.56
-11.97
-3.61
3.91
11.39
19.38
27.92
36.61
45.09
53.32
61.62
70.35
79.49
88.38
95.94
100.97
102.79
101.40
97.56
92.30
86.56
80.86
75.28
69.56
63.40
56.64
49.32
41.64
33.92
26.47
19.67
13.94
9.81
7.67
7.60
9.22
11.82
14.65
17.39
20.22
23.79
28.75
35.33
43.10
51.06
58.11
63.54
67.30
69.93
72.10
74.20
76.04
77.01
76.44
73.99
69.80
64.39
58.29
51.66
44.22
35.51
25.38
14.32
3.50
-5.63
-11.87
-14.69
-14.32
-11.60
-7.54
-3.07
1.15
4.76
7.62
9.70
11.09
11.90
12.22
12.12
11.56
10.55
9.14
7.53
6.03
4.99
4.64
5.03
6.02
7.38
8.79
9.96
10.62
10.58
9.85
8.62
7.23
6.06
5.36
5.18
5.29
5.30
4.83
3.58
1.49
-1.31
-4.56
-8.00
-11.37
-14.50
-17.25
-19.53
-21.30
-22.52
-23.18
-23.27
-22.80
-21.77
-20.18
-18.03
-15.39
-12.42
-9.35
-6.39
-3.65
-1.17
1.13
3.33
5.44
7.43
9.19
10.65
11.75
12.52
13.00
13.27
13.39
13.32
12.95
12.09
10.57
8.39
5.70
2.90
0.48
-1.12
-1.68
-1.28
-0.28
0.72
1.04
0.05
-2.59
-6.82
-12.16
-17.83
-23.05
-27.28
-30.35
-32.41
-33.65
-34.18
-33.99
-33.08
-31.62
-29.97
-28.48
-27.24
-25.95
-24.10
-21.35
-17.84
-14.15
-11.07
-9.15
-8.43
-8.51
-8.75
-8.69
-8.11
-7.11
-5.88
-4.55
-3.17
-1.70
-0.13
1.47
3.03
4.43
5.59
6.50
7.17
7.65
7.94
7.99
7.67
6.88
5.54
3.67
1.40
-1.11
-3.71
-6.30
-8.74
-10.88
-12.53
-13.51
-13.76
-13.36
-12.49
-11.37
-10.17
-9.00
-7.89
-6.88
-6.04
-5.48
-5.23
-5.31
-5.58
-5.88
-6.08
-6.14
-6.16
-6.31
-6.78
-7.69
-8.97
-10.46
-11.91
-13.12
-14.03
-14.65
-15.07
-15.34
-15.44
-15.33
-14.98
-14.44
-13.85
-13.31
-12.92
-12.69
-12.62
-12.74
-13.12
-13.81
-14.72
-15.64
-16.20
-16.05
-14.95
-12.94
-10.25
-7.28
-4.41
-1.89
0.21
1.94
3.45
4.82
6.10
7.28
8.33
9.23
9.94
10.41
10.57
10.37
9.81
8.97
8.09
7.40
7.07
7.09
7.29
7.41
7.18
6.51
5.41
4.04
2.57
1.15
-0.13
-1.20
-2.05
-2.75
-3.34
-3.94
-4.61
-5.42
-6.41
-7.60
-9.01
-10.63
-12.34
-13.87
-14.90
-15.07
-14.17
-12.22
-9.47
-6.38
-3.41
-0.94
0.84
1.93
2.53
2.89
3.18
3.52
3.84
4.06
4.12
4.04
3.90
3.80
3.78
3.80
3.79
3.72
3.60
3.44
3.32
3.24
3.21
3.18
3.08
2.83
2.34
1.58
0.55
-0.66
-1.93
-3.13
-4.19
-5.07
-5.79
-6.41
-7.02
-7.71
-8.60
-9.79
-11.32
-13.13
-15.00
-16.66
-17.75
-18.02
-17.32
-15.71
-13.43
-10.82
-8.20
-5.78
-3.66
-1.82
-0.22
1.14
2.27
3.20
3.96
4.64
5.27
5.85
6.29
6.50
6.43
6.15
5.77
5.43
5.22
5.15
5.18
5.23
5.18
4.94
4.41
3.62
2.67
1.74
0.97
0.43
0.01
-0.45
-1.09
-1.99
-3.11
-4.38
-5.77
-7.29
-8.93
-10.61
-12.20
-13.51
-14.52
-15.31
-16.14
-17.27
-18.80
-20.60
-22.34
-23.58
-23.93
-23.17
-21.34
-18.70
-15.61
-12.43
-9.47
-6.86
-4.64
-2.76
-1.16
0.20
1.36
2.37
3.29
4.15
4.95
5.63
6.17
6.53
6.77
6.98
7.26
7.67
8.20
8.77
9.28
9.63
9.73
9.55
9.09
8.39
7.50
6.50
5.44
4.35
3.25
2.10
0.82
-0.63
-2.29
-4.12
-6.01
-7.82
-9.46
-10.92
-12.28
-13.72
-15.40
-17.46
-19.95
-22.80
-25.86
-28.94
-31.76
-34.03
-35.48
-35.86
-35.08
-33.20
-30.43
-27.17
-23.82
-20.74
-18.14
-16.02
-14.24
-12.57
-10.82
-8.91
-6.91
-4.96
-3.21
-1.70
-0.39
0.87
2.18
3.58
5.00
6.37
7.60
8.72
9.76
10.78
11.73
12.52
13.02
13.19
13.02
12.57
11.89
11.01
9.94
8.73
7.44
6.12
4.77
3.32
1.64
-0.38
-2.82
-5.58
-8.51
-11.46
-14.34
-17.16
-19.99
-22.90
-25.90
-28.90
-31.71
-34.07
-35.67
-36.23
-35.51
-33.42
-30.01
-25.50
-20.23
-14.64
-9.13
-4.07
0.29
3.85
6.61
8.72
10.36
11.68
12.85
13.96
15.10
16.33
17.71
19.20
20.75
22.18
23.35
24.14
24.59
24.77
24.80
24.71
24.41
23.78
22.72
21.25
19.54
17.78
16.11
14.52
12.87
11.03
8.94
6.72
4.56
2.66
1.09
-0.26
-1.60
-3.15
-5.11
-7.51
-10.28
-13.18
-15.86
-17.94
-19.04
-18.94
-17.54
-14.95
-11.37
-7.07
-2.38
2.39
6.92
10.91
14.10
16.42
17.88
18.68
19.05
19.19
19.27
19.34
19.42
19.50
19.56
19.63
19.74
19.94
20.26
20.67
21.11
21.47
21.62
21.44
20.87
19.93
18.69
17.30
15.88
14.53
13.25
11.96
10.54
8.88
6.95
4.81
2.65
0.67
-0.97
-2.26
-3.36
-4.55
-6.12
-8.27
-10.98
-13.99
-16.87
-19.09
-20.16
-19.75
-17.74
-14.27
-9.71
-4.59
0.50
5.05
8.69
11.30
12.94
13.82
14.19
14.27
14.23
14.14
14.05
13.99
13.94
13.91
13.89
13.91
13.99
14.15
14.33
14.40
14.20
13.55
12.40
10.75
8.70
6.36
3.85
1.20
-1.57
-4.44
-7.41
-10.49
-13.70
-17.07
-20.59
-24.20
-27.82
-31.35
-34.74
-37.96
-40.95
-43.61
-45.72
-46.94
-46.89
-45.19
-41.58
-35.99
-28.54
-19.58
-9.62
0.73
10.85
20.15
28.17
34.60
39.30
42.36
43.98
44.47
44.15
43.30
42.12
40.76
39.35
38.00
36.85
36.00
35.44
35.09
34.74
34.23
33.45
32.40
31.22
30.02
28.82
27.56
26.08
24.28
22.19
19.89
17.52
15.13
12.70
10.14
7.43
4.65
1.98
-0.42
-2.51
-4.42
-6.46
-8.94
-12.02
-15.58
-19.16
-22.11
-23.75
-23.63
-21.64
-18.07
-13.45
-8.48
-3.75
0.30
3.44
5.63
6.95
7.58
7.77
7.78
7.79
7.91
8.11
8.31
8.40
8.33
8.17
8.04
8.12
8.50
9.17
9.99
10.73
11.17
11.15
10.69
9.91
8.99
8.08
7.21
6.32
5.32
4.11
2.67
1.08
-0.64
-2.44
-4.27
-6.12
-7.96
-9.77
-11.59
-13.56
-15.79
-18.29
-20.86
-23.11
-24.52
-24.62
-23.15
-20.12
-15.82
-10.76
-5.49
-0.53
3.73
7.13
9.67
11.49
12.79
13.74
14.49
15.18
15.90
16.74
17.68
18.63
19.42
19.90
19.98
19.75
19.37
19.00
18.72
18.43
17.99
17.20
15.98
14.34
12.34
10.08
7.62
5.07
2.53
0.14
-1.97
-3.77
-5.29
-6.68
-8.14
-9.85
-11.93
-14.43
-17.31
-20.45
-23.66
-26.66
-29.07
-30.44
-30.38
-28.69
-25.45
-21.09
-16.25
-11.58
-7.52
-4.19
-1.43
0.98
3.20
5.21
6.87
8.08
8.86
9.36
9.70
9.97
10.11
10.08
9.86
9.61
9.51
9.75
10.35
11.16
11.91
12.35
12.30
11.76
10.84
9.70
8.51
7.34
6.14
4.83
3.29
1.52
-0.39
-2.28
-4.02
-5.59
-7.12
-8.81
-10.82
-13.22
-15.90
-18.67
-21.31
-23.55
-25.13
-25.76
-25.18
-23.23
-19.99
-15.80
-11.19
-6.69
-2.68
0.73
3.63
6.19
8.55
10.70
12.55
14.02
15.05
15.65
15.88
15.79
15.46
14.96
14.42
13.94
13.65
13.58
13.76
14.10
14.49
14.79
14.85
14.53
13.78
12.60
11.05
9.23
7.23
5.11
2.93
0.76
-1.31
-3.16
-4.74
-6.10
-7.34
-8.62
-10.08
-11.82
-13.90
-16.33
-19.06
-21.87
-24.41
-26.14
-26.57
-25.36
-22.49
-18.30
-13.34
-8.24
-3.51
0.53
3.72
6.12
7.89
9.27
10.47
11.65
12.81
13.87
14.72
15.26
15.49
15.50
15.40
15.28
15.21
15.24
15.48
15.99
16.77
17.67
18.40
18.66
18.24
17.17
15.66
14.05
12.59
11.33
10.19
8.97
7.60
6.10
4.61
3.23
1.96
0.70
-0.68
-2.20
-3.84
-5.51
-7.21
-8.98
-10.95
-13.19
-15.73
-18.46
-21.23
-23.89
-26.27
-28.14
-29.19
-29.09
-27.60
-24.75
-20.84
-16.46
-12.21
-8.55
-5.68
-3.52
-1.87
-0.49
0.76
1.99
3.27
4.62
6.05
7.49
8.78
9.76
10.31
10.45
10.31
10.11
10.02
10.15
10.51
11.02
11.56
12.02
12.26
12.19
11.75
10.96
9.89
8.63
7.28
5.91
4.53
3.17
1.84
0.55
-0.74
-2.07
-3.46
-4.92
-6.39
-7.80
-9.12
-10.42
-11.87
-13.66
-15.91
-18.55
-21.28
-23.65
-25.20
-25.60
-24.75
-22.77
-19.95
-16.67
-13.28
-10.08
-7.27
-4.92
-2.98
-1.36
0.06
1.38
2.63
3.80
4.85
5.75
6.45
6.94
7.21
7.29
7.32
7.46
7.84
8.52
9.37
10.13
10.53
10.39
9.74
8.78
7.76
6.86
6.14
5.48
4.73
3.75
2.48
0.99
-0.61
-2.18
-3.65
-4.98
-6.23
-7.43
-8.66
-9.97
-11.45
-13.17
-15.13
-17.25
-19.26
-20.80
-21.46
-20.97
-19.31
-16.72
-13.66
-10.59
-7.89
-5.68
-3.91
-2.45
-1.18
-0.06
0.90
1.69
2.39
3.11
3.94
4.86
5.72
6.33
6.59
6.57
6.48
6.59
7.02
7.75
8.54
9.16
9.45
9.42
9.16
8.79
8.34
7.77
7.00
6.02
4.97
4.02
3.31
2.87
2.53
2.05
1.21
-0.10
-1.84
-3.81
-5.80
-7.65
-9.32
-10.91
-12.53
-14.34
-16.39
-18.69
-21.17
-23.72
-26.13
-28.09
-29.26
-29.27
-27.90
-25.17
-21.38
-17.06
-12.76
-8.96
-5.88
-3.51
-1.69
-0.20
1.10
2.32
3.51
4.67
5.75
6.70
7.45
7.98
8.33
8.62
9.02
9.65
10.50
11.45
12.28
12.81
13.01
12.98
12.91
12.95
13.10
13.19
13.04
12.49
11.54
10.34
9.09
7.93
6.89
5.85
4.64
3.18
1.46
-0.41
-2.24
-3.90
-5.37
-6.76
-8.21
-9.84
-11.67
-13.63
-15.65
-17.68
-19.75
-21.87
-23.98
-25.89
-27.29
-27.81
-27.21
-25.38
-22.48
-18.83
-14.84
-10.89
-7.26
-4.11
-1.46
0.75
2.60
4.18
5.55
6.70
7.65
8.38
8.93
9.36
9.75
10.17
10.70
11.37
12.19
13.09
14.00
14.80
15.36
15.60
15.46
14.97
14.17
13.17
12.04
10.84
9.60
8.38
7.17
6.01
4.91
3.84
2.76
1.63
0.41
-0.94
-2.38
-3.88
-5.37
-6.82
-8.24
-9.72
-11.40
-13.43
-15.90
-18.79
-21.93
-25.06
-27.82
-29.81
-30.72
-30.30
-28.49
-25.45
-21.52
-17.14
-12.84
-8.99
-5.84
-3.37
-1.40
0.32
2.05
3.89
5.83
7.73
9.44
10.80
11.79
12.47
13.02
13.60
14.36
15.31
16.35
17.35
18.17
18.81
19.26
19.57
19.70
19.57
19.09
18.23
17.08
15.83
14.63
13.53
12.46
11.29
9.90
8.31
6.59
4.90
3.34
1.86
0.36
-1.32
-3.24
-5.36
-7.54
-9.65
-11.63
-13.56
-15.65
-18.10
-21.04
-24.36
-27.76
-30.74
-32.77
-33.40
-32.40
-29.83
-25.96
-21.25
-16.17
-11.18
-6.63
-2.78
0.30
2.67
4.51
6.05
7.49
8.93
10.36
11.71
12.92
13.95
14.80
15.49
16.07
16.60
17.17
17.88
18.78
19.85
20.99
22.02
22.81
23.28
23.38
23.12
22.50
21.56
20.36
19.01
17.57
16.14
14.72
13.31
11.89
10.47
9.10
7.80
6.56
5.33
3.99
2.42
0.58
-1.52
-3.79
-6.08
-8.28
-10.35
-12.35
-14.44
-16.82
-19.61
-22.79
-26.17
-29.41
-32.05
-33.68
-33.98
-32.86
-30.41
-26.92
-22.78
-18.38
-14.05
-10.03
-6.45
-3.38
-0.80
1.34
3.14
4.68
6.05
7.27
8.34
9.28
10.11
10.94
11.84
12.86
13.97
15.07
16.08
16.93
17.60
18.10
18.42
18.52
18.38
17.95
17.21
16.22
15.02
13.71
12.34
10.95
9.52
8.04
6.51
4.99
3.50
2.08
0.69
-0.71
-2.24
-3.91
-5.71
-7.54
-9.31
-10.94
-12.48
-14.07
-15.88
-18.04
-20.60
-23.47
-26.45
-29.24
-31.48
-32.75
-32.71
-31.14
-28.07
-23.82
-18.89
-13.82
-9.04
-4.78
-1.08
2.08
4.73
6.86
8.46
9.62
10.49
11.30
12.17
13.13
14.10
14.94
15.60
16.11
16.60
17.21
17.98
18.86
19.70
20.36
20.76
20.88
20.73
20.34
19.73
18.90
17.84
16.57
15.08
13.44
11.64
9.73
7.77
5.86
4.10
2.60
1.37
0.29
-0.77
-1.99
-3.46
-5.20
-7.15
-9.23
-11.35
-13.46
-15.60
-17.86
-20.31
-22.99
-25.85
-28.69
-31.22
-33.08
-33.94
-33.57
-31.85
-28.83
-24.73
-19.91
-14.89
-10.15
-6.08
-2.87
-0.47
1.36
2.92
4.43
5.98
7.50
8.90
10.10
11.10
11.96
12.76
13.55
14.34
15.13
15.95
16.83
17.79
18.78
19.67
20.28
20.46
20.18
19.52
18.64
17.69
16.74
15.82
14.88
13.89
12.79
11.57
10.21
8.73
7.16
5.57
4.00
2.44
0.82
-0.96
-2.93
-5.06
-7.23
-9.31
-11.18
-12.82
-14.32
-15.88
-17.76
-20.15
-23.09
-26.38
-29.57
-32.07
-33.34
-33.04
-31.19
-28.05
-24.03
-19.57
-15.06
-10.79
-6.98
-3.75
-1.09
1.11
3.04
4.85
6.59
8.20
9.51
10.41
10.93
11.22
11.50
12.00
12.79
13.83
14.93
15.92
16.71
17.29
17.73
18.05
18.23
18.16
17.70
16.86
15.70
14.41
13.15
11.97
10.85
9.68
8.38
6.92
5.36
3.79
2.28
0.84
-0.56
-1.97
-3.45
-5.03
-6.71
-8.44
-10.22
-12.03
-13.93
-16.01
-18.38
-21.08
-24.00
-26.87
-29.31
-30.95
-31.48
-30.74
-28.75
-25.71
-21.92
-17.74
-13.51
-9.49
-5.86
-2.71
-0.09
1.96
3.48
4.57
5.41
6.22
7.19
8.36
9.64
10.82
11.76
12.41
12.89
13.34
13.89
14.52
15.15
15.68
16.02
16.16
16.11
15.87
15.42
14.74
13.85
12.80
11.67
10.50
9.30
8.04
6.73
5.38
4.03
2.68
1.29
-0.21
-1.85
-3.59
-5.38
-7.10
-8.74
-10.37
-12.11
-14.12
-16.47
-19.18
-22.10
-24.99
-27.54
-29.39
-30.23
-29.89
-28.33
-25.74
-22.42
-18.75
-15.08
-11.65
-8.59
-5.94
-3.61
-1.51
0.47
2.39
4.28
6.04
7.56
8.72
9.49
9.94
10.25
10.61
11.15
11.88
12.71
13.49
14.15
14.64
15.02
15.32
15.57
15.68
15.54
15.09
14.31
13.30
12.18
11.10
10.12
9.26
8.44
7.58
6.61
5.50
4.26
2.95
1.62
0.32
-0.96
-2.23
-3.58
-5.09
-6.84
-8.86
-11.17
-13.79
-16.66
-19.72
-22.82
-25.71
-28.03
-29.45
-29.66
-28.54
-26.19
-22.90
-19.04
-14.97
-10.98
-7.22
-3.81
-0.81
1.74
3.83
5.56
7.02
8.33
9.52
10.52
11.27
11.78
12.17
12.68
13.47
14.54
15.70
16.70
17.33
17.60
17.64
17.68
17.78
17.87
17.75
17.23
16.29
15.01
13.59
12.21
10.89
9.60
8.25
6.76
5.11
3.32
1.37
-0.72
-2.89
-5.01
-6.95
-8.59
-9.96
-11.20
-12.57
-14.30
-16.49
-19.06
-21.79
-24.39
-26.55
-27.97
-28.39
-27.61
-25.55
-22.29
-18.14
-13.61
-9.19
-5.30
-2.13
0.36
2.33
3.96
5.40
6.72
7.90
8.95
9.86
10.65
11.38
12.11
12.91
13.80
14.74
15.67
16.54
17.35
18.17
19.02
19.88
20.62
21.06
21.06
20.56
19.70
18.62
17.51
16.42
15.29
14.05
12.61
10.99
9.24
7.46
5.65
3.77
1.67
-0.79
-3.71
-7.12
-10.91
-14.93
-18.93
-22.65
-25.84
-28.20
-29.49
-29.57
-28.45
-26.33
-23.54
-20.43
-17.32
-14.43
-11.85
-9.58
-7.56
-5.74
-4.02
-2.35
-0.70
0.90
2.34
3.55
4.46
5.11
5.64
6.24
7.03
7.99
9.00
9.89
10.57
11.05
11.47
11.91
12.33
12.59
12.48
11.92
11.01
9.93
8.90
7.96
6.95
5.65
3.90
1.72
-0.70
-3.07
-5.21
-7.03
-8.63
-10.14
-11.75
-13.59
-15.78
-18.38
-21.35
-24.50
-27.46
-29.76
-30.96
-30.76
-29.12
-26.25
-22.56
-18.49
-14.43
-10.63
-7.26
-4.32
-1.78
0.48
2.59
4.64
6.63
8.51
10.20
11.64
12.82
13.78
14.58
15.27
15.87
16.46
17.11
17.88
18.79
19.72
20.51
20.97
21.01
20.62
19.90
18.98
17.93
16.79
15.58
14.28
12.92
11.47
9.91
8.20
6.32
4.26
2.10
-0.10
-2.27
-4.32
-6.18
-7.81
-9.23
-10.57
-12.08
-14.03
-16.58
-19.70
-23.07
-26.19
-28.51
-29.59
-29.26
-27.57
-24.78
-21.22
-17.23
-13.09
-9.04
-5.27
-1.92
0.92
3.25
5.13
6.65
7.92
9.02
9.98
10.83
11.60
12.29
12.92
13.51
14.07
14.63
15.24
15.93
16.68
17.44
18.11
18.55
18.65
18.34
17.62
16.53
15.16
13.59
11.91
10.21
8.57
7.02
5.52
3.95
2.20
0.19
-2.03
-4.31
-6.46
-8.33
-9.91
-11.37
-12.97
-14.97
-17.54
-20.64
-24.03
-27.27
-29.84
-31.31
-31.39
-30.08
-27.56
-24.17
-20.28
-16.19
-12.12
-8.24
-4.63
-1.40
1.39
3.72
5.63
7.18
8.46
9.55
10.48
11.28
12.00
12.67
13.33
14.00
14.67
15.30
15.83
16.25
16.61
16.96
17.29
17.57
17.68
17.48
16.92
16.03
14.92
13.70
12.46
11.17
9.79
8.28
6.65
4.93
3.13
1.28
-0.65
-2.65
-4.66
-6.59
-8.38
-10.06
-11.79
-13.77
-16.22
-19.20
-22.55
-25.99
-29.06
-31.36
-32.55
-32.45
-31.02
-28.38
-24.73
-20.36
-15.64
-10.94
-6.63
-2.96
-0.05
2.15
3.84
5.25
6.57
7.85
9.08
10.14
10.94
11.47
11.80
12.11
12.58
13.35
14.40
15.58
16.65
17.38
17.69
17.63
17.37
17.05
16.73
16.34
15.78
14.95
13.84
12.51
11.00
9.38
7.65
5.88
4.14
2.50
0.99
-0.41
-1.81
-3.32
-5.00
-6.86
-8.83
-10.83
-12.82
-14.84
-16.98
-19.36
-22.04
-24.94
-27.81
-30.23
-31.79
-32.14
-31.10
-28.73
-25.28
-21.07
-16.49
-11.91
-7.65
-3.98
-1.05
1.11
2.64
3.78
4.83
6.00
7.40
9.05
10.83
12.63
14.30
15.75
16.89
17.68
18.16
18.42
18.64
18.99
19.56
20.26
20.91
21.25
21.13
20.50
19.47
18.21
16.81
15.29
13.57
11.57
9.28
6.80
4.29
1.93
-0.13
-1.89
-3.40
-4.86
-6.48
-8.42
-10.80
-13.62
-16.77
-20.02
-23.03
-25.36
-26.64
-26.60
-25.18
-22.53
-18.98
-14.95
-10.82
-6.89
-3.34
-0.24
2.37
4.49
6.14
7.36
8.25
8.93
9.57
10.33
11.27
12.38
13.56
14.70
15.72
16.60
17.40
18.19
18.97
19.71
20.30
20.61
20.57
20.16
19.45
18.54
17.56
16.60
15.69
14.81
13.97
13.18
12.49
11.88
11.22
10.23
8.63
6.29
3.36
0.14
-3.06
-6.10
-9.04
-11.97
-14.85
-17.37
-19.03
-19.43
-18.46
-16.43
-13.95
-11.63
-9.87
-8.79
-8.23
-7.97
-7.84
-7.76
-7.74
-7.81
-8.00
-8.28
-8.59
-8.81
-8.89
-8.82
-8.67
-8.56
-8.58
-8.66
-8.66
-8.42
-7.87
-7.21
-6.83
-7.13
-8.31
-10.22
-12.52
-14.98
-17.61
-20.62
-24.25
-28.46
-32.80
-36.68
-39.69
-41.84
-43.64
-45.69
-48.26
-51.02
-53.21
-53.98
-52.95
-50.40
-47.08
-43.84
-41.10
-38.82
-36.57
-33.94
-30.84
-27.63
-24.90
-23.09
-22.21
-21.81
-21.17
-19.73
-17.39
-14.60
-12.13
-10.59
-10.08
-10.08
-9.68
-8.04
-4.75
0.01
5.64
11.48
17.05
22.20
26.92
31.15
34.66
37.15
38.43
38.60
37.96
36.87
35.52
33.87
31.66
28.62
24.63
19.87
14.90
10.48
7.41
6.20
6.85
8.87
11.55
14.27
16.82
19.49
22.88
27.57
33.74
41.12
49.09
57.02
64.46
71.25
77.36
82.70
86.96
89.69
90.47
89.15
85.93
81.35
76.08
70.67
65.33
60.01
54.53
48.81
43.03
37.56
32.83
29.05
26.14
23.76
21.46
18.88
15.86
12.46
8.87
5.27
1.77
-1.60
-4.88
-8.14
-11.45
-14.85
-18.40
-22.10
-25.90
-29.69
-33.18
-35.98
-37.70
-38.23
-37.84
-37.17
-37.00
-37.83
-39.66
-41.84
-43.36
-43.25
-41.04
-36.93
-31.65
-26.10
-20.97
-16.60
-12.99
-10.02
-7.55
-5.51
-3.86
-2.52
-1.42
-0.49
0.21
0.55
0.39
-0.26
-1.22
-2.14
-2.68
-2.66
-2.03
-0.85
0.86
3.06
5.69
8.57
11.34
13.63
15.16
15.83
15.81
15.33
14.65
13.91
13.13
12.21
11.04
9.51
7.56
5.21
2.56
-0.19
-2.80
-5.03
-6.71
-7.70
-7.98
-7.58
-6.57
-5.08
-3.22
-1.12
1.17
3.59
6.08
8.54
10.85
12.91
14.65
16.08
17.23
18.07
18.52
18.49
18.00
17.17
16.25
15.48
14.95
14.63
14.32
13.87
13.21
12.43
11.67
11.06
10.60
10.19
9.69
8.98
8.02
6.81
5.41
3.83
2.10
0.19
-1.88
-4.06
-6.24
-8.31
-10.21
-11.93
-13.54
-15.08
-16.51
-17.63
-18.20
-18.01
-16.98
-15.28
-13.21
-11.11
-9.25
-7.73
-6.55
-5.67
-5.07
-4.76
-4.74
-4.99
-5.44
-5.99
-6.54
-7.01
-7.32
-7.41
-7.27
-6.96
-6.63
-6.43
-6.48
-6.78
-7.24
-7.72
-8.12
-8.39
-8.63
-8.90
-9.26
-9.72
-10.24
-10.77
-11.30
-11.87
-12.50
-13.26
-14.15
-15.11
-16.04
-16.80
-17.22
-17.18
-16.63
-15.66
-14.40
-12.99
-11.53
-10.03
-8.50
-6.98
-5.56
-4.39
-3.58
-3.09
-2.84
-2.65
-2.46
-2.23
-2.04
-1.95
-1.98
-2.03
-1.99
-1.76
-1.36
-0.91
-0.57
-0.49
-0.69
-1.07
-1.49
-1.88
-2.28
-2.87
-3.80
-5.14
-6.77
-8.41
-9.79
-10.73
-11.23
-11.44
-11.57
-11.76
-12.02
-12.30
-12.47
-12.42
-12.09
-11.44
-10.45
-9.17
-7.70
-6.20
-4.83
-3.74
-2.99
-2.55
-2.29
-2.05
-1.71
-1.21
-0.57
0.12
0.75
1.20
1.38
1.26
0.88
0.39
-0.07
-0.36
-0.40
-0.24
0.02
0.31
0.55
0.75
0.93
1.05
1.06
0.87
0.41
-0.28
-1.06
-1.77
-2.29
-2.65
-2.99
-3.51
-4.37
-5.52
-6.74
-7.70
-8.08
-7.78
-6.86
-5.59
-4.25
-3.02
-1.97
-1.05
-0.24
0.42
0.83
0.90
0.62
0.16
-0.28
-0.44
-0.26
0.17
0.56
0.65
0.31
-0.38
-1.12
-1.60
-1.60
-1.15
-0.47
0.15
0.49
0.46
0.19
-0.14
-0.40
-0.54
-0.63
-0.81
-1.16
-1.69
-2.29
-2.85
-3.29
-3.61
-3.90
-4.21
-4.61
-5.08
-5.59
-6.12
-6.66
-7.22
-7.73
-8.02
-7.92
-7.28
-6.12
-4.63
-3.12
-1.85
-0.98
-0.50
-0.26
-0.11
0.04
0.21
0.35
0.39
0.28
0.00
-0.39
-0.82
-1.15
-1.26
-1.13
-0.82
-0.53
-0.43
-0.62
-1.05
-1.56
-1.99
-2.24
-2.32
-2.32
-2.31
-2.36
-2.53
-2.84
-3.35
-4.03
-4.81
-5.51
-5.98
-6.14
-6.05
-5.92
-5.93
-6.26
-6.93
-7.85
-8.86
-9.82
-10.60
-11.10
-11.20
-10.77
-9.71
-7.99
-5.75
-3.31
-1.00
0.84
2.05
2.69
2.99
3.18
3.45
3.81
4.19
4.46
4.54
4.45
4.28
4.14
4.13
4.28
4.57
4.97
5.41
5.83
6.13
6.25
6.10
5.69
5.05
4.29
3.48
2.69
1.94
1.21
0.52
-0.18
-0.90
-1.66
-2.50
-3.43
-4.43
-5.45
-6.37
-7.12
-7.72
-8.27
-8.96
-9.92
-11.19
-12.71
-14.32
-15.85
-17.12
-17.96
-18.16
-17.55
-16.07
-13.81
-11.09
-8.35
-6.00
-4.27
-3.16
-2.48
-2.00
-1.58
-1.12
-0.63
-0.12
0.44
1.07
1.74
2.42
3.04
3.59
4.09
4.60
5.14
5.73
6.32
6.86
7.29
7.53
7.52
7.20
6.59
5.79
4.93
4.17
3.59
3.15
2.68
2.05
1.14
-0.02
-1.32
-2.62
-3.82
-4.91
-5.93
-6.95
-8.00
-9.10
-10.28
-11.60
-13.14
-14.95
-16.99
-19.05
-20.79
-21.81
-21.83
-20.72
-18.57
-15.70
-12.49
-9.35
-6.54
-4.19
-2.24
-0.55
1.04
2.57
3.96
5.13
5.96
6.49
6.85
7.22
7.76
8.50
9.39
10.28
11.06
11.68
12.19
12.67
13.23
13.92
14.64
15.16
15.24
14.70
13.51
11.81
9.84
7.81
5.81
3.83
1.85
-0.11
-1.98
-3.65
-5.12
-6.52
-8.06
-9.93
-12.17
-14.69
-17.33
-19.97
-22.57
-25.20
-27.90
-30.56
-32.91
-34.59
-35.22
-34.57
-32.57
-29.32
-25.04
-20.05
-14.73
-9.49
-4.71
-0.64
2.59
5.11
7.09
8.79
10.36
11.88
13.31
14.58
15.65
16.51
17.27
18.05
18.98
20.12
21.39
22.62
23.65
24.36
24.74
24.88
24.85
24.67
24.29
23.63
22.66
21.43
20.05
18.64
17.25
15.86
14.41
12.83
11.09
9.23
7.28
5.27
3.26
1.29
-0.57
-2.33
-4.01
-5.77
-7.77
-10.18
-13.03
-16.12
-19.11
-21.50
-22.79
-22.61
-20.84
-17.61
-13.30
-8.42
-3.54
0.87
4.52
7.30
9.33
10.80
11.88
12.72
13.37
13.81
14.09
14.28
14.49
14.83
15.33
16.00
16.80
17.69
18.66
19.64
20.55
21.25
21.60
21.53
21.08
20.41
19.66
18.88
18.02
16.93
15.46
13.59
11.47
9.34
7.40
5.76
4.30
2.85
1.24
-0.58
-2.54
-4.50
-6.38
-8.18
-9.97
-11.85
-13.87
-16.00
-18.22
-20.48
-22.77
-25.04
-27.13
-28.73
-29.46
-28.95
-26.96
-23.53
-18.95
-13.73
-8.41
-3.48
0.77
4.25
7.05
9.25
10.95
12.20
13.02
13.50
13.75
13.93
14.21
14.65
15.23
15.82
16.33
16.70
16.98
17.20
17.38
17.44
17.30
16.93
16.42
15.91
15.56
15.39
15.24
14.87
14.09
12.89
11.44
10.00
8.77
7.77
6.91
6.00
4.91
3.55
1.92
0.05
-1.96
-4.02
-6.02
-7.90
-9.71
-11.57
-13.68
-16.17
-19.04
-22.06
-24.87
-27.03
-28.14
-27.91
-26.20
-23.06
-18.70
-13.49
-7.94
-2.55
2.18
5.95
8.68
10.51
11.71
12.59
13.32
13.92
14.33
14.46
14.30
13.95
13.59
13.39
13.43
13.69
14.04
14.39
14.65
14.78
14.76
14.54
14.08
13.29
12.12
10.50
8.44
6.00
3.26
0.36
-2.57
-5.42
-8.17
-10.83
-13.44
-15.97
-18.29
-20.22
-21.60
-22.43
-22.89
-23.32
-24.00
-25.13
-26.76
-28.82
-31.11
-33.36
-35.27
-36.42
-36.39
-34.74
-31.23
-26.04
-19.70
-13.00
-6.62
-1.05
3.58
7.37
10.63
13.55
16.06
17.98
19.18
19.76
19.99
20.22
20.77
22.16
24.60
27.79
31.23
34.54
37.73
41.10
45.00
49.64
55.57
62.78
70.36
77.10
82.14
85.42
87.42
88.81
90.12
92.72
97.14
102.40
106.54
107.62
104.57
97.41
87.25
76.18
68.38
67.11
72.77
82.90
93.13
98.74
96.04
83.47
52.89
4.94
-50.95
-101.79
-138.95
-161.70
-174.32
-182.30
-190.19
-201.13
-216.16
-234.66
-255.28
-274.75
-288.11
-290.24
-278.39
-253.65
-220.51
-183.13
-143.41
-104.26
-67.33
-33.07
-1.80
25.35
46.27
58.78
62.31
57.38
44.98
27.20
7.39
-10.19
-21.36
-23.71
-17.60
-6.02
6.37
15.11
18.31
17.19
14.92
14.46
16.96
21.81
27.56
33.21
38.62
44.57
51.36
57.97
62.40
62.77
58.46
50.63
41.47
32.97
26.27
21.65
19.00
18.04
18.23
18.48
17.24
12.80
4.00
-9.12
-25.35
-42.55
-57.79
-67.55
-68.10
-56.09
-29.69
10.24
59.67
112.04
159.64
195.25
213.59
212.21
192.15
157.95
117.08
78.11
48.09
30.45
23.74
22.75
20.64
11.97
-4.95
-27.35
-49.16
-63.44
-65.01
-52.26
-27.67
3.35
34.04
58.36
72.94
78.10
77.65
77.33
82.30
94.80
113.13
132.58
147.74
155.01
153.92
146.61
136.03
124.25
111.82
98.66
85.28
73.27
64.41
59.49
57.49
55.99
52.62
46.30
37.72
28.73
21.23
16.27
13.76
12.83
12.19
10.59
6.87
0.08
-10.36
-24.32
-40.66
-57.28
-71.68
-81.81
-86.81
-87.35
-85.31
-82.96
-82.01
-83.06
-85.61
-88.58
-91.08
-92.82
-94.14
-95.62
-97.58
-99.90
-102.14
-103.90
-105.03
-105.62
-105.65
-104.69
-101.98
-96.66
-88.33
-77.29
-64.55
-51.34
-38.64
-26.88
-16.06
-6.01
3.31
11.77
19.20
25.59
31.22
36.45
41.47
46.18
50.25
53.52
56.27
59.42
64.24
71.87
82.77
96.43
111.42
125.92
138.32
147.77
154.38
158.97
162.68
166.32
170.20
174.19
178.06
181.70
185.20
188.62
191.77
194.25
195.53
195.23
193.26
189.77
184.99
179.15
172.40
164.98
157.33
150.03
143.63
138.39
134.08
129.98
125.16
118.79
110.44
100.24
88.79
76.94
65.43
54.62
44.55
35.01
25.81
16.79
7.84
-1.21
-10.53
-20.11
-29.55
-38.07
-44.81
-49.34
-51.95
-53.71
-55.99
-59.91
-65.90
-73.63
-82.40
-91.55
-100.90
-110.72
-121.56
-133.91
-148.07
-164.08
-181.79
-200.93
-221.01
-241.30
-260.82
-278.46
-293.16
-304.21
-311.38
-314.93
-315.57
-314.32
-312.48
-311.42
-312.33
-315.91
-321.97
-329.29
-335.70
-338.63
-335.83
-326.00
-309.28
-287.16
-262.05
-236.53
-212.76
-192.03
-174.73
-160.63
-149.24
-140.14
-133.14
-128.18
-125.18
-123.77
-123.02
-121.36
-116.77
-107.33
-91.92
-70.72
-45.26
-17.96
8.63
32.57
52.89
69.44
82.52
92.47
99.38
103.19
103.83
101.46
96.57
89.93
82.30
74.22
65.74
56.63
46.73
36.44
26.96
19.93
16.68
17.52
21.46
26.69
31.30
34.03
34.40
32.45
28.16
21.33
11.92
0.50
-11.47
-21.92
-28.93
-31.56
-30.15
-26.05
-20.99
-16.30
-12.64
-10.06
-8.41
-7.67
-7.97
-9.42
-11.82
-14.48
-16.30
-16.13
-13.10
-6.94
1.94
12.60
23.78
34.19
42.83
49.19
53.28
55.52
56.54
56.90
56.92
56.70
56.23
55.41
54.24
52.72
50.88
48.77
46.50
44.41
43.06
43.16
45.25
49.39
55.02
61.05
66.23
69.56
70.54
69.25
66.14
61.86
57.13
52.68
49.28
47.61
48.06
50.54
54.42
58.76
62.62
65.41
66.88
66.88
65.06
60.79
53.60
43.65
32.25
21.70
14.61
12.82
16.60
24.36
33.09
39.27
39.90
33.33
19.49
-0.25
-23.59
-47.93
-70.98
-91.03
-107.05
-118.62
-125.66
-128.51
-127.88
-124.92
-121.05
-117.53
-115.03
-113.19
-110.81
-106.36
-98.72
-87.73
-74.12
-59.10
-43.80
-28.85
-14.43
-0.54
12.65
24.65
34.87
42.82
48.46
52.13
54.45
56.01
57.21
58.22
59.05
59.67
60.05
60.23
60.29
60.30
60.25
60.04
59.47
58.41
56.81
54.79
52.51
50.10
47.58
44.87
41.84
38.40
34.57
30.39
25.96
21.36
16.66
11.97
7.48
3.45
0.26
-1.74
-2.24
-1.02
2.06
6.98
13.50
21.09
28.91
35.96
41.37
44.64
45.88
45.78
45.35
45.58
47.11
50.16
54.61
60.04
65.68
70.29
72.36
70.57
64.48
55.10
44.79
36.44
32.19
32.40
35.53
38.88
39.99
37.75
32.74
26.58
20.91
16.53
13.22
10.21
6.93
3.40
0.21
-1.88
-2.47
-1.82
-0.69
0.09
0.06
-0.62
-1.41
-1.63
-0.99
0.31
1.59
1.97
0.70
-2.54
-7.54
-13.62
-19.80
-25.02
-28.40
-29.50
-28.35
-25.38
-21.31
-16.95
-12.94
-9.68
-7.27
-5.61
-4.49
-3.77
-3.39
-3.37
-3.71
-4.32
-5.01
-5.55
-5.73
-5.52
-4.98
-4.26
-3.52
-2.84
-2.22
-1.72
-1.42
-1.50
-2.09
-3.33
-5.26
-7.82
-10.90
-14.38
-18.13
-22.05
-26.10
-30.28
-34.64
-39.23
-44.04
-48.98
-53.87
-58.48
-62.61
-66.11
-68.92
-70.98
-72.15
-72.12
-70.46
-66.77
-60.86
-53.01
-43.90
-34.44
-25.46
-17.44
-10.50
-4.56
0.27
3.67
5.14
4.52
2.30
-0.21
-1.25
0.75
6.56
15.86
27.45
39.83
51.75
62.53
71.96
80.04
86.64
91.40
93.87
93.77
91.14
86.41
80.21
73.20
65.95
58.85
52.17
46.24
41.39
38.01
36.31
36.18
36.98
37.47
36.13
31.66
23.52
12.47
0.48
-9.74
-15.70
-15.94
-10.51
-0.76
11.31
23.88
35.73
46.36
55.58
63.14
68.52
71.09
70.47
66.79
60.77
53.46
45.93
38.88
32.53
26.72
21.11
15.52
10.10
5.32
1.76
-0.19
-0.56
0.08
0.88
1.07
0.27
-1.42
-3.47
-5.37
-6.81
-7.90
-9.00
-10.47
-12.48
-14.93
-17.56
-20.09
-22.41
-24.57
-26.72
-29.00
-31.53
-34.32
-37.32
-40.39
-43.22
-45.35
-46.24
-45.40
-42.63
-37.97
-31.86
-24.87
-17.66
-10.78
-4.64
0.53
4.64
7.72
9.92
11.36
12.19
12.51
12.34
11.75
10.83
9.76
8.72
7.87
7.23
6.77
6.37
5.96
5.56
5.21
5.00
4.88
4.68
4.12
2.93
0.96
-1.69
-4.78
-7.97
-10.93
-13.53
-15.77
-17.81
-19.86
-22.15
-24.89
-28.15
-31.79
-35.40
-38.35
-39.90
-39.44
-36.72
-31.95
-25.74
-18.84
-11.97
-5.68
-0.28
4.04
7.20
9.21
10.20
10.45
10.26
9.88
9.38
8.75
7.89
6.83
5.67
4.58
3.70
3.04
2.52
2.05
1.61
1.22
0.92
0.65
0.20
-0.66
-2.13
-4.23
-6.80
-9.58
-12.30
-14.84
-17.22
-19.57
-21.98
-24.53
-27.16
-29.71
-32.01
-33.79
-34.79
-34.72
-33.29
-30.33
-25.84
-20.12
-13.65
-7.07
-0.95
4.31
8.50
11.58
13.61
14.65
14.81
14.23
13.15
11.82
10.50
9.35
8.42
7.66
6.96
6.22
5.37
4.42
3.36
2.27
1.18
0.09
-1.06
-2.38
-4.04
-6.14
-8.64
-11.43
-14.27
-17.00
-19.56
-22.07
-24.79
-27.91
-31.51
-35.34
-38.87
-41.36
-42.10
-40.61
-36.85
-31.18
-24.31
-17.05
-10.11
-4.01
1.02
4.92
7.76
9.68
10.88
11.55
11.87
11.99
11.96
11.75
11.30
10.59
9.65
8.63
7.73
7.08
6.77
6.73
6.76
6.63
6.09
4.95
3.14
0.73
-2.11
-5.13
-8.11
-10.88
-13.42
-15.88
-18.55
-21.72
-25.64
-30.27
-35.24
-39.85
-43.15
-44.30
-42.72
-38.39
-31.83
-23.94
-15.76
-8.18
-1.74
3.37
7.22
10.04
12.05
13.44
14.33
14.82
14.94
14.73
14.23
13.51
12.62
11.65
10.66
9.77
9.09
8.76
8.84
9.26
9.76
9.94
9.40
7.86
5.31
1.99
-1.68
-5.32
-8.72
-11.90
-15.07
-18.51
-22.46
-26.99
-31.91
-36.75
-40.83
-43.35
-43.65
-41.38
-36.60
-29.78
-21.71
-13.24
-5.15
2.04
8.04
12.76
16.23
18.53
19.80
20.28
20.22
19.90
19.52
19.15
18.76
18.26
17.65
17.01
16.54
16.46
16.83
17.57
18.38
18.85
18.59
17.35
15.12
12.11
8.71
5.30
2.14
-0.73
-3.55
-6.66
-10.43
-15.07
-20.57
-26.58
-32.52
-37.59
-40.90
-41.71
-39.58
-34.52
-27.10
-18.24
-9.02
-0.38
7.06
13.06
17.66
21.05
23.41
24.91
25.67
25.80
25.40
24.49
23.09
21.14
18.70
15.95
13.17
10.70
8.80
7.53
6.80
6.37
6.04
5.65
5.10
4.38
3.41
2.07
0.22
-2.28
-5.53
-9.58
-14.35
-19.68
-25.24
-30.51
-34.77
-37.24
-37.18
-34.21
-28.39
-20.30
-10.90
-1.32
7.47
14.82
20.51
24.58
27.22
28.62
28.96
28.36
27.03
25.27
23.38
21.67
20.25
19.15
18.29
17.61
17.06
16.61
16.15
15.48
14.31
12.43
9.74
6.36
2.53
-1.45
-5.40
-9.26
-13.19
-17.43
-22.25
-27.76
-33.88
-40.23
-46.09
-50.53
-52.60
-51.58
-47.23
-39.90
-30.49
-20.15
-9.98
-0.76
7.13
13.63
18.81
22.76
25.54
27.23
28.02
28.18
28.00
27.68
27.30
26.89
26.43
25.97
25.60
25.36
25.22
25.07
24.72
23.97
22.67
20.69
17.96
14.51
10.45
6.02
1.47
-2.98
-7.29
-11.60
-16.21
-21.41
-27.31
-33.70
-39.95
-45.14
-48.24
-48.43
-45.30
-39.01
-30.26
-20.11
-9.70
-0.04
8.26
14.98
20.27
24.47
27.89
30.74
33.06
34.77
35.79
36.12
35.87
35.26
34.50
33.78
33.19
32.79
32.60
32.58
32.62
32.53
32.05
30.96
29.11
26.56
23.49
20.14
16.66
13.13
9.50
5.66
1.60
-2.61
-6.79
-10.83
-14.73
-18.65
-22.87
-27.73
-33.39
-39.77
-46.36
-52.26
-56.39
-57.71
-55.61
-50.09
-41.80
-31.79
-21.21
-11.05
-1.90
5.96
12.52
17.92
22.31
25.88
28.81
31.19
33.10
34.56
35.61
36.28
36.71
37.02
37.37
37.85
38.47
39.17
39.86
40.38
40.57
40.30
39.49
38.10
36.16
33.74
30.90
27.77
24.49
21.22
18.11
15.22
12.46
9.68
6.67
3.29
-0.45
-4.43
-8.45
-12.31
-15.89
-19.15
-22.21
-25.29
-28.71
-32.81
-37.79
-43.58
-49.74
-55.47
-59.75
-61.63
-60.43
-55.97
-48.60
-39.14
-28.60
-18.03
-8.27
0.18
7.12
12.64
16.94
20.26
22.76
24.53
25.65
26.22
26.45
26.57
26.82
27.29
27.93
28.62
29.19
29.61
29.94
30.30
30.74
31.13
31.19
30.54
28.96
26.45
23.31
19.96
16.80
14.00
11.44
8.82
5.81
2.27
-1.69
-5.73
-9.49
-12.72
-15.43
-17.85
-20.34
-23.26
-26.87
-31.32
-36.57
-42.35
-48.13
-53.12
-56.36
-56.99
-54.46
-48.74
-40.32
-30.13
-19.29
-8.87
0.32
7.77
13.32
17.07
19.35
20.61
21.34
21.92
22.60
23.44
24.30
25.03
25.47
25.64
25.66
25.74
26.09
26.73
27.55
28.31
28.70
28.48
27.52
25.77
23.31
20.27
16.85
13.26
9.66
6.11
2.62
-0.87
-4.41
-7.98
-11.49
-14.87
-18.11
-21.38
-24.99
-29.26
-34.35
-40.11
-45.97
-51.03
-54.24
-54.74
-52.08
-46.39
-38.32
-28.85
-19.02
-9.73
-1.58
5.19
10.55
14.64
17.65
19.75
21.11
21.89
22.27
22.45
22.60
22.80
23.04
23.30
23.58
23.93
24.40
25.01
25.63
26.05
26.02
25.41
24.18
22.39
20.14
17.46
14.38
10.88
7.00
2.84
-1.48
-5.77
-9.85
-13.59
-17.01
-20.25
-23.60
-27.39
-31.86
-37.00
-42.49
-47.65
-51.57
-53.34
-52.28
-48.13
-41.17
-32.15
-22.12
-12.17
-3.24
4.10
9.64
13.49
15.96
17.41
18.19
18.59
18.78
18.95
19.21
19.66
20.33
21.19
22.14
23.07
23.90
24.63
25.26
25.79
26.15
26.19
25.76
24.72
23.03
20.73
17.95
14.89
11.75
8.69
5.75
2.84
-0.21
-3.57
-7.26
-11.18
-15.10
-18.79
-22.14
-25.21
-28.25
-31.64
-35.77
-40.84
-46.72
-52.84
-58.23
-61.77
-62.46
-59.75
-53.68
-44.88
-34.38
-23.33
-12.74
-3.33
4.50
10.66
15.26
18.52
20.68
22.02
22.79
23.27
23.73
24.37
25.30
26.52
27.97
29.56
31.22
32.91
34.53
35.96
37.04
37.60
37.59
37.04
36.06
34.76
33.17
31.28
29.06
26.49
23.61
20.49
17.26
13.99
10.77
7.68
4.80
2.14
-0.37
-2.89
-5.61
-8.68
-12.13
-15.87
-19.75
-23.64
-27.49
-31.38
-35.52
-40.16
-45.51
-51.58
-58.08
-64.28
-69.14
-71.49
-70.40
-65.50
-57.18
-46.47
-34.74
-23.30
-13.03
-4.32
2.87
8.69
13.30
16.76
19.08
20.40
21.00
21.31
21.74
22.56
23.78
25.26
26.80
28.34
29.88
31.52
33.29
35.09
36.65
37.69
37.94
37.30
35.83
33.78
31.47
29.19
27.08
25.14
23.19
20.97
18.30
15.17
11.78
8.44
5.41
2.73
0.24
-2.37
-5.39
-8.91
-12.81
-16.81
-20.63
-24.13
-27.37
-30.58
-34.04
-38.03
-42.76
-48.25
-54.37
-60.66
-66.33
-70.35
-71.64
-69.44
-63.52
-54.39
-43.08
-30.94
-19.21
-8.78
-0.07
6.88
12.19
16.09
18.81
20.57
21.65
22.37
23.01
23.75
24.71
25.84
27.08
28.38
29.68
30.97
32.22
33.40
34.41
35.16
35.55
35.48
34.88
33.70
31.93
29.62
26.90
23.88
20.72
17.53
14.41
11.43
8.65
6.09
3.64
1.15
-1.60
-4.77
-8.39
-12.32
-16.29
-20.08
-23.55
-26.86
-30.30
-34.24
-38.95
-44.46
-50.47
-56.38
-61.37
-64.48
-64.90
-62.10
-56.02
-47.15
-36.41
-24.99
-14.01
-4.38
3.46
9.44
13.78
16.83
18.93
20.36
21.30
21.91
22.36
22.83
23.49
24.46
25.75
27.28
28.91
30.47
31.81
32.85
33.55
33.90
33.89
33.53
32.77
31.56
29.80
27.41
24.39
20.86
17.11
13.44
10.10
7.13
4.36
1.54
-1.57
-5.07
-8.83
-12.60
-16.15
-19.37
-22.30
-25.14
-28.12
-31.51
-35.50
-40.24
-45.72
-51.66
-57.48
-62.26
-64.93
-64.54
-60.57
-53.18
-43.20
-31.92
-20.69
-10.58
-2.20
4.37
9.32
13.02
15.79
17.88
19.48
20.72
21.77
22.76
23.78
24.88
26.08
27.38
28.80
30.35
32.06
33.89
35.68
37.23
38.28
38.61
38.12
36.82
34.81
32.27
29.36
26.23
23.01
19.79
16.65
13.61
10.61
7.56
4.34
0.84
-2.96
-6.94
-10.97
-14.83
-18.44
-21.83
-25.18
-28.79
-33.00
-38.05
-43.98
-50.49
-56.93
-62.33
-65.60
-65.78
-62.36
-55.46
-45.86
-34.79
-23.60
-13.37
-4.76
2.11
7.40
11.45
14.54
16.91
18.71
20.12
21.31
22.41
23.51
24.62
25.73
26.86
28.09
29.50
31.09
32.77
34.33
35.51
36.14
36.19
35.66
34.61
33.08
31.07
28.57
25.63
22.37
18.93
15.44
11.97
8.54
5.13
1.67
-1.89
-5.60
-9.40
-13.22
-16.94
-20.52
-24.01
-27.61
-31.64
-36.39
-42.01
-48.29
-54.66
-60.26
-64.08
-65.25
-63.24
-58.04
-50.11
-40.34
-29.74
-19.31
-9.84
-1.78
4.67
9.61
13.27
15.98
18.04
19.71
21.14
22.36
23.35
24.14
24.80
25.50
26.44
27.75
29.39
31.17
32.84
34.12
34.88
35.06
34.62
33.48
31.56
28.80
25.35
21.57
17.87
14.58
11.73
9.08
6.26
2.98
-0.80
-4.87
-8.88
-12.59
-15.94
-19.02
-22.05
-25.25
-28.86
-33.10
-38.12
-43.88
-50.01
-55.72
-59.96
-61.68
-60.15
-55.21
-47.36
-37.59
-27.10
-17.01
-8.10
-0.77
4.97
9.38
12.77
15.48
17.74
19.72
21.49
23.13
24.71
26.27
27.86
29.43
30.86
32.06
32.99
33.74
34.44
35.26
36.16
36.95
37.25
36.66
34.97
32.24
28.79
25.10
21.56
18.33
15.35
12.38
9.19
5.61
1.63
-2.63
-6.99
-11.25
-15.25
-18.90
-22.24
-25.48
-28.99
-33.18
-38.33
-44.40
-50.92
-57.03
-61.59
-63.52
-62.13
-57.31
-49.61
-40.05
-29.86
-20.09
-11.40
-4.00
2.22
7.49
11.99
15.80
18.87
21.21
22.95
24.32
25.59
26.99
28.62
30.40
32.18
33.78
35.13
36.24
37.20
38.05
38.76
39.13
38.95
38.08
36.50
34.33
31.76
28.96
26.00
22.90
19.67
16.37
13.12
10.00
7.01
4.02
0.88
-2.53
-6.24
-10.11
-14.00
-17.78
-21.46
-25.22
-29.31
-34.05
-39.68
-46.18
-53.17
-59.87
-65.17
-67.90
-67.21
-62.80
-55.15
-45.29
-34.48
-23.89
-14.32
-6.14
0.60
6.06
10.50
14.17
17.34
20.21
22.87
25.32
27.51
29.39
31.02
32.52
34.03
35.63
37.30
38.91
40.25
41.18
41.59
41.51
40.97
40.03
38.74
37.05
34.96
32.46
29.57
26.41
23.13
19.87
16.73
13.67
10.57
7.26
3.66
-0.17
-4.06
-7.77
-11.17
-14.28
-17.28
-20.48
-24.19
-28.64
-33.92
-39.92
-46.30
-52.45
-57.48
-60.42
-60.41
-57.05
-50.52
-41.60
-31.44
-21.21
-11.81
-3.72
2.98
8.49
13.09
17.03
20.44
23.38
25.87
27.96
29.74
31.31
32.76
34.15
35.45
36.55
37.36
37.81
37.96
37.92
37.84
37.72
37.42
36.63
35.07
32.59
29.34
25.70
22.11
18.90
16.09
13.45
10.59
7.24
3.37
-0.77
-4.82
-8.45
-11.58
-14.42
-17.35
-20.78
-25.04
-30.21
-36.08
-42.18
-47.82
-52.14
-54.33
-53.74
-50.17
-43.93
-35.78
-26.73
-17.79
-9.67
-2.75
2.97
7.70
11.73
15.26
18.39
21.11
23.28
24.78
25.58
25.78
25.67
25.57
25.73
26.26
27.08
27.97
28.67
29.01
28.90
28.36
27.42
26.10
24.40
22.33
19.86
17.04
13.92
10.55
6.98
3.26
-0.51
-4.23
-7.80
-11.19
-14.52
-18.00
-21.91
-26.44
-31.55
-36.88
-41.79
-45.48
-47.13
-46.21
-42.56
-36.53
-28.89
-20.61
-12.65
-5.63
0.22
5.04
9.10
12.63
15.72
18.29
20.23
21.48
22.14
22.41
22.52
22.72
23.17
23.95
25.03
26.25
27.44
28.38
28.93
29.08
28.85
28.29
27.38
26.01
24.09
21.62
18.77
15.82
13.06
10.65
8.55
6.56
4.41
1.93
-0.90
-3.98
-7.17
-10.33
-13.42
-16.41
-19.33
-22.21
-25.18
-28.49
-32.42
-37.14
-42.57
-48.21
-53.22
-56.62
-57.57
-55.64
-50.89
-43.92
-35.60
-26.89
-18.66
-11.48
-5.63
-1.04
2.54
5.46
8.00
10.30
12.40
14.24
15.81
17.12
18.24
19.29
20.35
21.48
22.71
24.00
25.22
26.23
26.82
26.91
26.50
25.65
24.48
23.06
21.42
19.57
17.54
15.38
13.17
10.96
8.74
6.51
4.21
1.83
-0.65
-3.23
-5.87
-8.53
-11.16
-13.75
-16.31
-18.91
-21.69
-24.76
-28.24
-32.25
-36.86
-41.98
-47.30
-52.15
-55.64
-56.87
-55.24
-50.69
-43.74
-35.33
-26.52
-18.18
-10.85
-4.72
0.28
4.35
7.75
10.73
13.46
16.06
18.54
20.84
22.86
24.53
25.81
26.73
27.38
27.86
28.30
28.79
29.36
29.98
30.58
31.00
31.09
30.75
29.92
28.59
26.81
24.64
22.17
19.49
16.67
13.84
11.07
8.42
5.84
3.28
0.63
-2.15
-5.06
-8.07
-11.10
-14.17
-17.38
-20.91
-24.89
-29.38
-34.18
-38.87
-42.82
-45.38
-46.00
-44.43
-40.70
-35.16
-28.38
-20.99
-13.65
-6.91
-1.17
3.39
6.82
9.31
11.17
12.63
13.84
14.83
15.57
16.02
16.25
16.41
16.70
17.28
18.17
19.31
20.47
21.44
22.02
22.10
21.62
20.63
19.18
17.37
15.23
12.75
9.89
6.65
3.10
-0.56
-4.08
-7.25
-10.01
-12.52
-15.12
-18.15
-21.86
-26.26
-31.13
-36.08
-40.61
-44.24
-46.57
-47.38
-46.60
-44.39
-41.04
-37.01
-32.76
-28.75
-25.35
-22.77
-21.08
-20.28
-20.33
-21.17
-22.72
-24.84
-27.19
-29.31
-30.76
-31.24
-30.80
-29.86
-29.00
-28.77
-29.49
-31.12
-33.43
-36.10
-38.89
-41.77
-44.80
-48.10
-51.63
-55.15
-58.29
-60.73
-62.35
-63.36
-64.30
-65.71
-68.00
-71.14
-74.65
-77.67
-79.18
-78.12
-73.68
-65.37
-53.22
-37.81
-20.23
-1.87
15.79
31.57
44.71
55.17
63.58
70.98
78.43
86.56
95.36
104.26
112.53
119.64
125.50
130.38
134.49
137.76
139.71
139.76
137.58
133.30
127.45
120.62
113.13
104.93
95.78
85.54
74.37
62.75
51.41
40.98
31.87
24.15
17.73
12.50
8.48
5.78
4.51
4.56
5.55
6.90
8.05
8.65
8.72
8.59
8.79
9.84
12.14
15.88
21.07
27.49
34.72
42.16
49.12
55.00
59.35
61.96
62.82
62.05
59.90
56.64
52.60
48.07
43.31
38.47
33.66
28.97
24.47
20.26
16.44
13.00
9.82
6.76
3.66
0.50
-2.61
-5.48
-7.91
-9.78
-11.08
-11.93
-12.50
-12.93
-13.38
-13.88
-14.46
-15.09
-15.80
-16.61
-17.60
-18.82
-20.30
-22.00
-23.82
-25.68
-27.48
-29.24
-30.98
-32.79
-34.78
-37.02
-39.55
-42.26
-44.93
-47.13
-48.34
-48.05
-45.99
-42.18
-36.98
-30.97
-24.80
-19.05
-14.10
-10.12
-7.18
-5.18
-3.97
-3.40
-3.30
-3.49
-3.84
-4.21
-4.52
-4.70
-4.75
-4.69
-4.55
-4.29
-3.89
-3.27
-2.45
-1.52
-0.68
-0.13
-0.03
-0.36
-0.95
-1.59
-2.08
-2.42
-2.72
-3.26
-4.24
-5.78
-7.84
-10.29
-12.97
-15.75
-18.52
-21.19
-23.61
-25.56
-26.81
-27.20
-26.66
-25.22
-23.02
-20.28
-17.28
-14.29
-11.62
-9.47
-8.01
-7.21
-6.95
-7.02
-7.24
-7.48
-7.72
-8.03
-8.44
-8.97
-9.54
-10.08
-10.50
-10.74
-10.80
-10.72
-10.55
-10.38
-10.34
-10.56
-11.11
-11.99
-13.08
-14.25
-15.35
-16.36
-17.32
-18.30
-19.39
-20.60
-21.90
-23.30
-24.73
-26.07
-27.09
-27.41
-26.66
-24.58
-21.22
-16.99
-12.49
-8.35
-4.99
-2.55
-0.91
0.12
0.70
0.87
0.65
0.12
-0.55
-1.10
-1.32
-1.16
-0.76
-0.42
-0.40
-0.82
-1.54
-2.30
-2.82
-2.98
-2.82
-2.54
-2.37
-2.46
-2.83
-3.49
-4.38
-5.51
-6.86
-8.40
-10.06
-11.83
-13.73
-15.78
-17.94
-19.99
-21.61
-22.34
-21.83
-19.96
-16.84
-12.89
-8.62
-4.57
-1.13
1.47
3.21
4.19
4.62
4.75
4.84
5.01
5.31
5.61
5.71
5.44
4.77
3.81
2.83
2.09
1.77
1.87
2.25
2.68
2.93
2.88
2.47
1.68
0.53
-0.93
-2.67
-4.60
-6.58
-8.49
-10.29
-12.02
-13.83
-15.86
-18.17
-20.65
-22.92
-24.50
-24.90
-23.82
-21.27
-17.58
-13.34
-9.18
-5.64
-2.98
-1.20
-0.05
0.69
1.24
1.65
1.96
2.19
2.38
2.59
2.78
2.85
2.67
2.27
1.80
1.51
1.64
2.23
3.09
3.88
4.25
3.95
2.90
1.17
-1.06
-3.52
-5.91
-7.97
-9.56
-10.74
-11.77
-13.01
-14.75
-17.12
-19.93
-22.71
-24.79
-25.54
-24.56
-21.85
-17.87
-13.34
-9.03
-5.45
-2.76
-0.80
0.72
2.01
3.16
4.09
4.72
5.08
5.30
5.53
5.80
6.08
6.26
6.32
6.31
6.32
6.43
6.58
6.64
6.42
5.79
4.74
3.36
1.77
0.06
-1.71
-3.58
-5.51
-7.48
-9.44
-11.42
-13.50
-15.82
-18.49
-21.47
-24.53
-27.19
-28.91
-29.20
-27.84
-24.94
-20.88
-16.19
-11.41
-6.92
-2.99
0.27
2.86
4.85
6.34
7.45
8.29
8.95
9.45
9.81
10.04
10.20
10.33
10.47
10.68
10.93
11.19
11.42
11.53
11.46
11.09
10.31
9.04
7.21
4.88
2.22
-0.51
-3.05
-5.29
-7.30
-9.36
-11.81
-14.89
-18.58
-22.54
-26.18
-28.87
-30.05
-29.42
-27.02
-23.14
-18.30
-13.06
-7.97
-3.44
0.36
3.42
5.83
7.71
9.12
10.07
10.56
10.62
10.39
10.05
9.78
9.68
9.78
10.05
10.44
10.91
11.45
12.04
12.59
12.95
12.93
12.34
11.03
8.99
6.32
3.27
0.16
-2.71
-5.14
-7.14
-8.96
-11.00
-13.70
-17.26
-21.55
-26.07
-30.08
-32.76
-33.50
-32.04
-28.52
-23.41
-17.36
-11.06
-5.07
0.24
4.70
8.28
11.08
13.26
15.00
16.46
17.74
18.86
19.79
20.51
21.06
21.58
22.24
23.18
24.39
25.74
27.03
28.13
28.98
29.60
29.98
30.04
29.64
28.63
27.00
24.88
22.58
20.40
18.51
16.84
15.11
13.00
10.28
6.95
3.27
-0.31
-3.45
-5.97
-8.03
-10.01
-12.41
-15.65
-19.91
-25.06
-30.65
-35.95
-40.11
-42.32
-42.05
-39.15
-33.95
-27.10
-19.49
-11.93
-5.07
0.78
5.57
9.46
12.77
15.75
18.57
21.27
23.70
25.73
27.25
28.29
28.98
29.54
30.15
30.94
31.88
32.87
33.78
34.45
34.77
34.72
34.32
33.63
32.73
31.68
30.50
29.20
27.76
26.15
24.36
22.36
20.20
17.91
15.57
13.22
10.86
8.45
5.92
3.24
0.40
-2.58
-5.62
-8.71
-11.83
-15.01
-18.32
-21.90
-25.88
-30.36
-35.30
-40.35
-44.93
-48.21
-49.38
-47.92
-43.81
-37.53
-29.93
-21.97
-14.42
-7.74
-2.04
2.80
6.96
10.56
13.64
16.17
18.17
19.80
21.22
22.64
24.18
25.83
27.49
29.02
30.35
31.53
32.68
33.87
35.09
36.20
36.99
37.24
36.85
35.87
34.45
32.79
31.06
29.38
27.79
26.27
24.76
23.21
21.55
19.71
17.68
15.53
13.34
11.23
9.25
7.36
5.42
3.25
0.73
-2.19
-5.47
-8.97
-12.56
-16.15
-19.71
-23.31
-27.12
-31.28
-35.87
-40.73
-45.48
-49.45
-51.88
-52.11
-49.78
-44.98
-38.20
-30.21
-21.84
-13.85
-6.79
-0.94
3.67
7.19
9.89
12.08
14.02
15.87
17.70
19.50
21.20
22.79
24.25
25.60
26.83
27.95
28.97
29.93
30.88
31.87
32.82
33.58
33.94
33.75
32.95
31.67
30.07
28.38
26.70
25.05
23.41
21.72
19.97
18.17
16.31
14.37
12.31
10.11
7.77
5.36
2.95
0.56
-1.85
-4.38
-7.17
-10.26
-13.61
-17.10
-20.56
-23.91
-27.21
-30.67
-34.57
-39.14
-44.40
-50.06
-55.57
-60.17
-63.10
-63.76
-61.82
-57.32
-50.65
-42.41
-33.39
-24.40
-16.10
-8.95
-3.12
1.50
5.14
8.11
10.64
12.88
14.90
16.78
18.57
20.35
22.16
23.99
25.77
27.42
28.88
30.13
31.13
31.88
32.37
32.63
32.69
32.57
32.28
31.80
31.05
30.01
28.69
27.21
25.73
24.46
23.48
22.75
22.10
21.28
20.09
18.47
16.55
14.50
12.52
10.66
8.81
6.79
4.44
1.74
-1.26
-4.39
-7.57
-10.75
-13.96
-17.21
-20.51
-23.87
-27.35
-31.04
-34.95
-38.88
-42.17
-43.86
-42.96
-38.88
-31.48
-21.25
-9.25
3.14
14.72
24.95
33.90
42.05
49.81
57.56
65.42
73.23
80.47
86.59
91.37
95.11
98.47
102.13
107.35
115.22
125.91
138.15
149.47
157.61
160.82
157.94
147.69
130.60
108.08
81.58
51.84
19.13
-15.06
-49.33
-83.67
-121.01
-162.19
-206.05
-249.78
-290.52
-325.94
-352.62
-368.09
-372.58
-370.80
-363.65
-349.09
-323.92
-286.74
-238.27
-178.28
-107.05
-27.70
50.60
122.81
187.19
243.74
291.30
308.75
280.26
209.05
134.93
69.42
16.32
-26.90
-57.27
-73.37
-76.62
-68.62
-50.51
-25.66
-2.69
7.20
-1.34
-25.33
-57.08
-82.37
-98.44
-103.97
-98.41
-88.46
-75.89
-60.11
-40.37
-17.77
5.14
26.34
46.59
67.01
86.47
106.07
127.79
152.78
179.99
205.72
225.10
235.22
234.95
224.09
205.63
184.26
164.50
149.79
140.72
135.50
132.40
130.04
127.20
123.73
120.00
116.39
113.81
111.56
107.38
99.11
85.44
66.32
42.98
17.41
-15.16
-52.51
-87.98
-114.80
-130.29
-135.81
-134.30
-128.56
-120.76
-112.35
-102.97
-92.97
-82.88
-73.36
-64.97
-58.20
-53.69
-52.11
-53.65
-57.38
-62.55
-68.57
-75.30
-83.02
-92.21
-103.41
-116.91
-132.89
-147.10
-159.98
-171.48
-179.72
-180.79
-170.30
-145.82
-108.87
-65.14
-22.29
12.18
34.64
45.68
48.75
47.67
44.95
41.40
37.11
32.77
29.26
28.03
29.68
33.35
37.04
38.83
37.68
34.22
30.44
28.60
31.41
40.78
56.86
76.91
95.77
106.98
105.30
89.14
61.37
29.20
0.87
-17.06
-23.57
-22.42
-19.62
-20.18
-25.14
-33.25
-42.23
-51.30
-61.80
-75.61
-92.44
-108.72
-118.18
-113.32
-92.72
-59.91
-21.94
13.64
41.71
60.80
71.10
72.65
64.83
46.92
20.51
-9.69
-37.23
-56.31
-63.98
-62.38
-57.43
-55.45
-60.53
-72.17
-85.58
-94.48
-93.47
-80.42
-57.36
-29.62
-3.88
14.24
22.92
23.39
18.67
12.07
5.29
-1.41
-8.25
-15.09
-21.17
-25.17
-27.04
-28.18
-30.37
-35.21
-42.96
-52.18
-60.68
-69.47
-77.90
-86.22
-95.51
-104.50
-113.18
-119.79
-121.48
-115.86
-102.29
-81.75
-56.40
-31.04
-7.70
14.11
37.23
65.30
101.11
145.93
199.58
259.68
321.15
376.10
415.01
430.61
422.07
396.90
369.38
354.92
362.53
389.98
424.23
448.39
450.44
428.33
388.76
341.94
295.77
252.84
210.98
165.41
114.43
61.47
13.36
-24.50
-51.21
-70.08
-86.19
-104.39
-130.14
-164.48
-203.47
-239.95
-268.76
-289.24
-304.55
-318.74
-336.05
-362.85
-401.06
-446.58
-490.43
-525.62
-549.85
-564.86
-573.36
-552.49
-490.53
-393.06
-281.01
-174.02
-83.34
-12.27
35.12
65.26
81.52
81.06
61.89
25.44
-22.60
-75.08
-126.52
-171.12
-201.31
-201.32
-166.38
-105.37
-45.59
5.90
48.51
84.61
114.40
139.67
161.91
182.54
204.48
232.23
271.91
325.00
388.84
456.40
519.01
549.35
525.36
444.33
327.39
207.29
108.13
39.20
-4.11
-32.68
-59.79
-90.83
-125.12
-158.75
-186.96
-207.75
-212.67
-198.19
-167.41
-129.76
-94.07
-65.68
-45.54
-31.59
-21.69
-14.62
-11.72
-14.58
-23.35
-34.40
-42.84
-45.03
-40.39
-31.50
-22.15
-16.64
-17.34
-23.90
-32.87
-40.11
-42.71
-40.06
-33.66
-25.94
-19.59
-16.38
-16.40
-17.70
-17.79
-14.74
-7.98
1.55
12.00
21.40
28.00
31.10
31.44
30.76
31.00
33.46
38.27
44.58
51.56
57.78
62.26
65.01
67.05
70.07
75.84
85.79
100.51
119.91
140.93
158.15
165.57
158.73
136.51
101.55
59.26
11.14
-34.95
-71.50
-94.72
-105.22
-106.26
-101.16
-92.16
-80.80
-68.73
-57.16
-48.05
-42.90
-41.51
-42.00
-41.90
-39.43
-34.41
-28.16
-22.11
-18.14
-17.41
-19.34
-22.00
-23.39
-22.27
-18.90
-14.67
-10.96
-9.41
-11.55
-18.39
-29.85
-44.72
-60.15
-71.73
-74.67
-65.60
-43.91
-15.00
13.53
34.77
44.99
44.58
37.07
26.93
17.79
11.42
7.94
7.00
8.00
10.09
12.07
12.61
10.84
6.98
2.31
-1.07
-0.67
5.29
16.87
31.50
44.24
48.61
39.00
13.38
-24.70
-66.15
-99.04
-113.22
-104.37
-75.61
-36.14
3.08
33.70
52.40
60.53
61.92
60.00
55.69
49.86
42.77
35.53
30.33
29.94
34.88
43.72
53.53
61.33
65.51
66.32
65.94
67.22
72.34
81.87
94.97
109.79
124.01
135.42
141.87
142.05
135.60
123.15
106.06
86.12
64.98
43.78
23.43
4.66
-10.90
-20.93
-23.36
-17.67
-5.63
8.92
21.12
29.30
32.13
30.32
26.10
22.06
19.50
17.94
15.42
9.69
-0.45
-14.69
-30.70
-44.99
-54.47
-57.86
-56.52
-54.23
-55.80
-65.06
-83.09
-107.15
-131.61
-150.15
-158.34
-155.11
-142.56
-124.50
-104.53
-85.17
-67.68
-52.93
-42.09
-36.61
-37.50
-44.34
-55.12
-66.85
-77.00
-84.36
-89.24
-92.66
-95.44
-97.42
-97.57
-94.75
-88.56
-80.09
-71.34
-64.31
-60.11
-58.59
-58.59
-58.64
-57.44
-54.12
-48.77
-41.88
-34.20
-26.55
-19.73
-14.61
-11.90
-11.85
-13.92
-17.67
-22.13
-26.25
-28.99
-29.48
-27.54
-23.69
-18.79
-13.26
-7.68
-1.93
4.22
10.38
14.94
14.96
7.16
-10.23
-29.81
-42.70
-41.34
-24.17
3.86
35.09
63.21
85.21
101.42
113.98
123.98
131.31
135.05
134.66
130.76
124.88
118.93
114.70
113.25
113.94
115.18
115.19
112.83
107.91
101.01
92.55
83.38
74.04
64.14
52.95
39.76
24.28
6.81
-10.12
-25.89
-39.74
-50.99
-59.45
-65.30
-69.03
-71.31
-72.79
-73.91
-75.18
-76.48
-77.46
-77.83
-77.54
-77.02
-76.89
-77.62
-79.13
-81.03
-82.54
-83.50
-84.80
-87.90
-93.41
-99.93
-103.44
-98.65
-81.61
-51.48
-11.40
32.82
74.18
107.50
128.53
134.58
124.52
99.20
62.51
21.70
-13.75
-34.87
-36.39
-18.94
11.10
44.24
71.43
87.24
91.40
88.16
83.84
83.98
90.19
100.15
108.23
107.60
94.30
69.16
37.57
6.75
-16.89
-30.43
-34.93
-34.12
-32.35
-32.83
-36.97
-44.77
-55.48
-67.06
-75.78
-76.74
-64.90
-37.23
5.56
58.46
112.44
155.25
175.14
164.50
122.71
57.25
-17.94
-86.33
-134.00
-150.16
-133.10
-89.36
-30.54
31.00
84.67
122.82
140.57
135.61
108.84
63.69
7.47
-50.03
-99.51
-135.94
-159.09
-172.28
-179.58
-177.54
-163.33
-135.91
-97.94
-55.33
-15.57
16.29
38.75
53.52
63.75
70.92
75.03
75.02
69.95
57.45
36.33
6.88
-28.86
-67.10
-103.45
-132.75
-150.46
-148.99
-129.65
-100.29
-71.47
-51.29
-42.61
-43.68
-49.81
-56.40
-60.90
-64.02
-66.71
-69.12
-70.22
-67.72
-60.35
-47.99
-31.63
-13.03
5.18
21.49
35.39
47.39
57.97
67.48
76.61
86.80
100.17
118.81
145.47
177.20
210.02
236.93
249.43
240.48
207.67
154.86
91.45
30.82
-14.58
-36.41
-33.53
-10.94
23.05
60.03
93.51
113.16
112.18
89.61
51.75
7.18
-36.87
-76.23
-108.58
-132.59
-147.62
-152.94
-148.91
-136.46
-118.36
-97.86
-78.22
-60.99
-45.68
-30.49
-12.36
11.76
46.16
91.22
145.68
205.27
263.26
311.48
342.25
351.33
330.23
280.93
214.89
148.44
94.07
56.29
32.66
18.07
8.53
2.19
-0.19
1.49
5.51
8.54
7.17
-0.34
-14.22
-33.54
-57.30
-83.51
-110.66
-134.84
-154.82
-170.51
-182.30
-190.82
-196.64
-200.33
-201.79
-201.16
-199.22
-196.23
-190.70
-179.48
-158.98
-127.16
-85.42
-40.66
1.63
34.33
51.67
51.71
36.75
12.54
-13.98
-36.88
-51.68
-57.37
-56.10
-50.96
-45.38
-43.26
-48.61
-65.50
-97.17
-143.21
-200.92
-265.51
-325.53
-364.35
-370.51
-342.41
-289.82
-236.84
-194.69
-166.31
-149.04
-135.30
-119.56
-99.45
-75.43
-49.66
-24.25
1.30
27.24
54.01
82.59
113.41
146.11
180.51
216.97
256.42
300.46
347.49
392.58
428.53
447.30
442.73
413.37
362.94
299.13
231.37
166.26
106.65
52.55
3.09
-40.98
-75.61
-95.63
-97.53
-81.56
-52.76
-18.46
15.56
47.42
79.95
118.62
166.33
220.53
273.31
314.69
337.24
338.84
322.26
293.79
261.61
232.54
210.95
198.70
195.50
199.49
207.52
215.58
212.30
191.75
155.38
111.94
71.94
41.40
20.14
6.35
-5.90
-20.19
-36.39
-53.98
-73.76
-98.93
-132.86
-177.70
-233.77
-300.07
-374.53
-453.49
-532.84
-607.47
-670.88
-714.97
-731.39
-714.39
-663.72
-585.11
-487.75
-382.18
-277.57
-180.75
-95.99
-25.70
28.40
66.41
86.50
88.66
75.99
54.25
29.11
4.41
-18.05
-38.21
-56.58
-73.42
-87.79
-99.28
-106.45
-108.87
-107.35
-103.24
-98.20
-93.57
-90.05
-87.20
-83.88
-78.61
-70.18
-59.74
-48.28
-36.78
-26.01
-16.57
-8.51
-1.59
4.64
10.39
15.79
21.20
26.87
32.91
39.09
45.18
50.92
56.35
61.72
67.56
74.82
84.25
96.15
110.13
125.42
141.19
156.93
172.58
188.50
205.40
224.09
245.47
270.52
299.83
332.76
366.53
396.22
415.87
420.79
409.38
383.83
349.06
310.47
272.00
235.44
201.17
169.51
141.50
118.56
101.39
89.11
79.37
69.40
57.40
43.29
28.40
14.59
3.24
-5.25
-11.44
-16.40
-21.11
-26.16
-31.58
-36.95
-41.67
-45.16
-47.12
-47.57
-46.83
-45.37
-43.73
-42.44
-41.85
-42.08
-42.96
-44.12
-45.04
-45.22
-44.34
-42.28
-39.19
-35.37
-31.20
-27.06
-23.26
-19.98
-17.32
-15.23
-13.59
-12.20
-10.91
-9.58
-8.19
-6.85
-5.75
-5.11
-5.11
-5.74
-6.89
-8.28
-9.63
-10.78
-11.71
-12.54
-13.47
-14.60
-15.89
-17.18
-18.32
-19.27
-20.15
-21.20
-22.63
-24.49
-26.71
-29.17
-31.75
-34.46
-37.25
-39.97
-42.31
-43.89
-44.37
-43.67
-41.90
-39.35
-36.32
-33.12
-29.94
-26.95
-24.23
-21.87
-19.93
-18.46
-17.51
-17.10
-17.19
-17.63
-18.21
-18.69
-18.88
-18.77
-18.42
-18.02
-17.71
-17.53
-17.45
-17.39
-17.30
-17.18
-17.13
-17.24
-17.52
-17.92
-18.31
-18.57
-18.68
-18.70
-18.74
-18.90
-19.19
-19.55
-19.83
-19.96
-19.92
-19.79
-19.70
-19.74
-19.96
-20.35
-20.87
-21.55
-22.39
-23.37
-24.37
-25.11
-25.25
-24.53
-22.89
-20.50
-17.73
-14.93
-12.33
-10.00
-7.83
-5.71
-3.57
-1.45
0.57
2.40
4.00
5.31
6.23
6.63
6.48
5.86
5.04
4.39
4.23
4.66
5.56
6.62
7.52
8.06
8.20
8.03
7.63
7.03
6.19
5.07
3.76
2.46
1.38
0.63
0.18
-0.15
-0.59
-1.33
-2.41
-3.76
-5.25
-6.75
-8.20
-9.58
-10.92
-12.25
-13.55
-14.81
-16.01
-17.19
-18.41
-19.72
-21.07
-22.32
-23.15
-23.26
-22.46
-20.70
-18.21
-15.30
-12.34
-9.58
-7.15
-5.10
-3.38
-1.92
-0.64
0.59
1.87
3.21
4.54
5.66
6.38
6.55
6.11
5.12
3.75
2.21
0.69
-0.57
-1.39
-1.67
-1.46
-1.00
-0.63
-0.71
-1.38
-2.55
-3.92
-5.12
-5.89
-6.19
-6.17
-6.06
-6.03
-6.15
-6.40
-6.74
-7.16
-7.65
-8.22
-8.83
-9.43
-10.00
-10.57
-11.27
-12.22
-13.49
-15.04
-16.65
-17.98
-18.64
-18.30
-16.81
-14.19
-10.73
-6.84
-3.02
0.31
2.95
4.86
6.21
7.25
8.22
9.28
10.46
11.69
12.86
13.89
14.73
15.37
15.84
16.14
16.31
16.40
16.48
16.64
16.90
17.23
17.49
17.58
17.37
16.81
15.92
14.73
13.30
11.67
9.90
8.08
6.28
4.57
2.92
1.29
-0.39
-2.13
-3.91
-5.74
-7.64
-9.71
-12.02
-14.58
-17.26
-19.83
-21.91
-23.14
-23.23
-22.08
-19.83
-16.81
-13.46
-10.20
-7.32
-4.86
-2.74
-0.82
0.99
2.67
4.14
5.30
6.13
6.66
6.96
7.06
6.98
6.76
6.45
6.19
6.11
6.32
6.78
7.34
7.75
7.82
7.41
6.53
5.28
3.81
2.25
0.69
-0.80
-2.23
-3.62
-5.02
-6.46
-7.94
-9.43
-10.85
-12.18
-13.43
-14.68
-16.08
-17.70
-19.51
-21.29
-22.69
-23.32
-22.85
-21.16
-18.39
-14.90
-11.14
-7.53
-4.37
-1.77
0.30
2.01
3.52
4.99
6.45
7.90
9.24
10.41
11.38
12.18
12.87
13.51
14.09
14.59
15.03
15.41
15.76
16.05
16.17
16.03
15.56
14.80
13.87
12.86
11.80
10.61
9.21
7.57
5.77
3.93
2.18
0.52
-1.11
-2.82
-4.67
-6.66
-8.75
-10.91
-13.15
-15.47
-17.78
-19.87
-21.39
-21.99
-21.40
-19.55
-16.62
-12.99
-9.08
-5.27
-1.82
1.15
3.64
5.69
7.38
8.78
9.96
10.95
11.79
12.50
13.07
13.48
13.73
13.83
13.80
13.70
13.62
13.60
13.67
13.80
13.91
13.86
13.52
12.82
11.79
10.54
9.21
7.90
6.64
5.42
4.16
2.84
1.47
0.06
-1.34
-2.69
-3.94
-5.02
-5.93
-6.71
-7.61
-8.88
-10.75
-13.28
-16.25
-19.24
-21.74
-23.31
-23.67
-22.72
-20.56
-17.45
-13.76
-9.90
-6.26
-3.10
-0.49
1.65
3.49
5.19
6.80
8.29
9.57
10.59
11.38
12.01
12.60
13.25
13.98
14.77
15.59
16.37
17.08
17.69
18.21
18.64
18.91
18.98
18.77
18.24
17.42
16.39
15.27
14.19
13.21
12.35
11.50
10.52
9.25
7.59
5.54
3.30
1.17
-0.52
-1.63
-2.21
-2.57
-3.13
-4.25
-6.11
-8.65
-11.57
-14.46
-16.82
-18.20
-18.20
-16.63
-13.52
-9.26
-4.45
0.18
4.06
6.90
8.76
9.93
10.82
11.72
12.75
13.84
14.80
15.50
15.88
16.00
15.94
15.82
15.73
15.72
15.80
16.02
16.33
16.64
16.82
16.67
16.08
14.99
13.51
11.79
10.05
8.46
7.13
6.08
5.20
4.37
3.46
2.39
1.16
-0.21
-1.72
-3.38
-5.27
-7.42
-9.79
-12.20
-14.49
-16.52
-18.35
-20.16
-22.22
-24.72
-27.68
-30.91
-34.08
-36.73
-38.40
-38.72
-37.52
-34.87
-31.05
-26.58
-21.97
-17.68
-13.99
-10.94
-8.45
-6.40
-4.66
-3.17
-1.91
-0.82
0.16
1.14
2.19
3.34
4.56
5.75
6.87
7.89
8.89
9.94
11.09
12.33
13.55
14.59
15.32
15.65
15.53
14.98
14.02
12.73
11.20
9.55
7.89
6.31
4.78
3.26
1.68
0.01
-1.68
-3.28
-4.71
-6.02
-7.34
-8.84
-10.67
-12.81
-15.21
-17.67
-19.99
-21.93
-23.17
-23.36
-22.24
-19.66
-15.83
-11.23
-6.52
-2.32
0.98
3.36
5.05
6.35
7.52
8.62
9.53
10.10
10.20
9.83
9.17
8.43
7.84
7.55
7.56
7.77
8.06
8.30
8.44
8.41
8.16
7.58
6.58
5.14
3.32
1.32
-0.64
-2.42
-4.01
-5.53
-7.21
-9.21
-11.65
-14.51
-17.67
-20.98
-24.25
-27.31
-30.02
-32.32
-34.25
-36.00
-37.82
-39.95
-42.53
-45.42
-48.23
-50.38
-51.19
-50.12
-46.93
-41.73
-35.00
-27.42
-19.66
-12.27
-5.57
0.30
5.30
9.49
12.93
15.72
17.98
19.86
21.47
22.88
24.08
25.05
25.78
26.33
26.76
27.12
27.40
27.56
27.51
27.17
26.49
25.46
24.14
22.56
20.80
18.90
16.92
14.86
12.76
10.60
8.43
6.27
4.12
1.95
-0.31
-2.76
-5.48
-8.46
-11.63
-14.86
-18.05
-21.13
-24.19
-27.33
-30.69
-34.33
-38.14
-41.74
-44.58
-45.99
-45.44
-42.71
-38.00
-31.88
-25.09
-18.35
-12.17
-6.83
-2.37
1.27
4.18
6.45
8.13
9.31
10.06
10.47
10.61
10.58
10.46
10.31
10.14
9.96
9.76
9.56
9.45
9.53
9.93
10.65
11.62
12.67
13.66
14.51
15.22
15.83
16.35
16.68
16.71
16.34
15.54
14.35
12.90
11.27
9.48
7.55
5.51
3.43
1.41
-0.47
-2.27
-4.15
-6.37
-9.10
-12.35
-15.90
-19.31
-22.01
-23.45
-23.25
-21.28
-17.70
-12.98
-7.70
-2.48
2.25
6.24
9.50
12.16
14.39
16.33
18.01
19.44
20.59
21.45
22.07
22.52
22.87
23.23
23.63
24.06
24.50
24.91
25.23
25.46
25.63
25.71
25.67
25.42
24.85
23.91
22.59
21.02
19.32
17.60
15.90
14.18
12.38
10.40
8.19
5.70
2.99
0.14
-2.69
-5.34
-7.67
-9.64
-11.36
-13.02
-14.87
-17.14
-19.93
-23.14
-26.47
-29.38
-31.26
-31.55
-29.99
-26.66
-22.01
-16.64
-11.21
-6.16
-1.78
1.86
4.75
6.95
8.56
9.71
10.56
11.27
11.93
12.56
13.12
13.54
13.78
13.92
14.05
14.25
14.56
14.90
15.21
15.40
15.47
15.43
15.28
14.94
14.33
13.38
12.08
10.55
8.97
7.52
6.26
5.16
4.08
2.87
1.44
-0.18
-1.94
-3.75
-5.61
-7.49
-9.41
-11.34
-13.19
-14.87
-16.37
-17.80
-19.43
-21.55
-24.25
-27.41
-30.50
-32.87
-33.84
-33.00
-30.33
-26.17
-21.06
-15.61
-10.33
-5.56
-1.46
1.92
4.62
6.77
8.47
9.86
11.02
12.00
12.78
13.37
13.74
13.93
14.03
14.16
14.46
15.00
15.78
16.71
17.64
18.42
18.96
19.21
19.19
18.93
18.44
17.70
16.65
15.30
13.65
11.80
9.86
7.93
6.08
4.34
2.66
1.04
-0.53
-2.04
-3.52
-5.03
-6.72
-8.67
-10.89
-13.24
-15.50
-17.48
-19.15
-20.68
-22.38
-24.53
-27.21
-30.20
-33.00
-34.96
-35.46
-34.14
-30.96
-26.25
-20.55
-14.50
-8.70
-3.58
0.59
3.74
5.92
7.29
8.10
8.63
9.14
9.77
10.57
11.43
12.23
12.84
13.22
13.47
13.74
14.16
14.80
15.59
16.40
17.03
17.33
17.24
16.74
15.89
14.75
13.41
12.00
10.59
9.25
7.99
6.77
5.51
4.13
2.58
0.87
-1.00
-2.97
-5.00
-7.02
-8.91
-10.60
-12.04
-13.32
-14.59
-16.04
-17.84
-20.08
-22.71
-25.55
-28.30
-30.53
-31.75
-31.52
-29.64
-26.16
-21.47
-16.15
-10.83
-5.95
-1.71
1.88
4.93
7.53
9.69
11.42
12.72
13.66
14.40
15.04
15.64
16.23
16.81
17.39
18.04
18.77
19.56
20.31
20.88
21.11
20.96
20.41
19.50
18.24
16.64
14.74
12.65
10.51
8.49
6.64
4.91
3.19
1.37
-0.60
-2.67
-4.74
-6.74
-8.65
-10.53
-12.44
-14.45
-16.58
-18.86
-21.32
-24.05
-27.11
-30.45
-33.77
-36.53
-38.06
-37.79
-35.47
-31.31
-25.90
-19.98
-14.19
-8.90
-4.22
-0.11
3.45
6.40
8.69
10.32
11.44
12.25
12.97
13.69
14.39
14.97
15.33
15.49
15.55
15.62
15.81
16.12
16.46
16.70
16.74
16.45
15.79
14.74
13.35
11.67
9.79
7.74
5.53
3.13
0.49
-2.34
-5.28
-8.13
-10.74
-12.98
-14.89
-16.65
-18.57
-20.95
-23.96
-27.54
-31.29
-34.57
-36.64
-36.89
-35.05
-31.23
-25.92
-19.81
-13.61
-7.91
-3.09
0.69
3.45
5.38
6.76
7.91
9.01
10.12
11.10
11.77
12.04
11.96
11.78
11.78
12.15
12.88
13.73
14.43
14.73
14.58
14.10
13.45
12.72
11.84
10.62
8.88
6.55
3.77
0.81
-2.12
-4.87
-7.48
-10.06
-12.75
-15.58
-18.54
-21.60
-24.77
-28.05
-31.35
-34.37
-36.62
-37.48
-36.49
-33.46
-28.64
-22.63
-16.21
-10.09
-4.72
-0.29
3.27
6.14
8.50
10.47
12.11
13.43
14.46
15.24
15.83
16.28
16.65
16.98
17.31
17.61
17.88
18.09
18.19
18.15
17.95
17.54
16.85
15.80
14.28
12.26
9.74
6.81
3.58
0.21
-3.19
-6.53
-9.77
-12.91
-15.94
-18.89
-21.81
-24.79
-27.92
-31.33
-35.01
-38.78
-42.21
-44.67
-45.52
-44.28
-40.86
-35.60
-29.15
-22.25
-15.56
-9.49
-4.17
0.41
4.35
7.77
10.77
13.47
15.93
18.19
20.26
22.12
23.73
25.03
26.04
26.78
27.36
27.88
28.46
29.09
29.70
30.08
30.02
29.34
28.02
26.18
24.02
21.72
19.42
17.06
14.56
11.82
8.78
5.52
2.10
-1.35
-4.76
-8.13
-11.42
-14.72
-18.13
-21.83
-26.01
-30.69
-35.60
-40.11
-43.38
-44.55
-43.12
-39.07
-32.95
-25.61
-18.00
-10.83
-4.52
0.81
5.24
8.94
12.08
14.81
17.26
19.47
21.48
23.27
24.77
25.94
26.76
27.29
27.63
27.97
28.45
29.19
30.17
31.30
32.32
32.93
32.83
31.87
30.04
27.57
24.82
22.14
19.72
17.51
15.28
12.72
9.60
5.90
1.84
-2.16
-5.76
-8.77
-11.28
-13.63
-16.33
-19.77
-24.10
-29.08
-34.10
-38.31
-40.83
-41.03
-38.63
-33.86
-27.31
-19.81
-12.22
-5.20
0.81
5.72
9.69
12.96
15.75
18.17
20.24
21.89
23.12
23.98
24.63
25.20
25.77
26.34
26.86
27.30
27.66
28.04
28.50
29.03
29.47
29.57
29.07
27.82
25.90
23.52
20.99
18.57
16.35
14.22
11.97
9.39
6.42
3.20
-0.01
-2.96
-5.53
-7.78
-9.91
-12.18
-14.80
-17.89
-21.46
-25.43
-29.48
-33.11
-35.61
-36.21
-34.33
-29.86
-23.21
-15.24
-6.98
0.67
7.18
12.46
16.70
20.17
23.09
25.56
27.56
29.04
30.00
30.49
30.63
30.57
30.44
30.29
30.15
30.01
29.92
29.93
30.02
30.10
29.93
29.32
28.11
26.33
24.16
21.85
19.56
17.33
15.06
12.65
10.07
7.43
4.91
2.72
0.96
-0.38
-1.47
-2.51
-3.82
-5.65
-8.16
-11.31
-14.82
-18.22
-20.99
-22.78
-23.55
-23.72
-24.08
-25.62
-29.21
-35.28
-43.68
-53.61
-63.84
-72.97
-79.87
-83.87
-84.98
-83.76
-81.19
-78.36
-76.37
-76.01
-77.66
-81.21
-86.05
-91.22
-95.61
-98.29
-98.73
-96.90
-93.19
-88.25
-82.81
-77.52
-72.97
-69.56
-67.51
-66.80
-67.20
-68.26
-69.49
-70.50
-71.05
-71.14
-70.87
-70.41
-69.88
-69.29
-68.51
-67.28
-65.38
-62.64
-59.12
-55.00
-50.49
-45.73
-40.83
-36.07
-32.06
-29.82
-30.43
-34.55
-41.91
-51.30
-60.95
-69.12
-74.65
-76.92
-75.65
-70.63
-61.82
-49.70
-35.70
-22.17
-11.76
-6.42
-6.47
-10.27
-14.82
-16.96
-14.59
-7.28
3.81
16.80
30.04
42.72
54.78
66.28
76.71
84.69
88.33
86.10
77.60
63.89
47.10
29.61
13.29
-0.85
-12.49
-21.55
-27.71
-30.40
-29.14
-23.93
-15.56
-5.49
4.81
14.48
23.74
33.74
45.92
61.24
79.79
100.94
123.79
147.71
172.28
196.94
220.43
240.64
255.06
261.70
259.88
250.53
235.86
218.41
200.39
183.21
167.62
154.00
142.72
134.21
128.86
126.88
128.11
132.00
137.69
144.16
150.45
155.82
159.86
162.46
163.74
164.06
164.03
164.74
167.65
174.14
184.69
198.13
211.49
220.86
222.78
215.63
200.20
179.18
155.95
133.35
112.98
95.38
80.67
69.07
61.02
56.84
56.33
58.26
60.62
60.75
55.94
43.94
23.22
-7.11
-47.60
-98.51
-159.19
-226.59
-294.47
-353.51
-393.47
-406.31
-389.01
-344.22
-278.58
-199.60
-112.99
-22.25
70.00
159.76
240.75
305.51
348.17
366.90
364.69
347.98
323.88
297.74
272.02
246.55
219.96
190.97
158.98
123.99
86.20
45.70
2.62
-42.84
-90.06
-138.12
-186.21
-233.78
-281.10
-329.46
-381.25
-439.32
-505.43
-578.36
-652.74
-719.54
-768.56
-792.08
-787.78
-759.57
-715.77
-665.62
-616.02
-570.01
-527.30
-486.14
-445.01
-403.37
-361.28
-318.78
-275.54
-231.12
-185.48
-139.14
-92.86
-47.36
-2.68
41.81
87.02
133.71
182.17
232.05
282.65
333.34
383.78
434.19
485.55
539.57
598.22
662.41
730.43
796.81
852.93
889.07
897.96
877.38
831.10
767.20
694.82
621.01
549.33
480.51
413.96
349.64
288.26
230.68
176.96
125.85
75.42
24.21
-27.73
-79.26
-128.21
-172.71
-211.80
-245.57
-274.78
-300.03
-321.13
-336.72
-345.49
-343.86
-328.52
-298.01
-253.91
-200.96
-145.07
-93.80
-49.14
-10.81
22.31
51.08
75.87
97.32
115.56
130.64
142.59
151.72
157.77
160.39
159.16
153.84
144.46
131.14
114.18
93.84
70.63
44.78
16.87
-12.23
-41.26
-68.90
-94.27
-117.31
-138.72
-159.60
-181.17
-203.95
-227.50
-250.68
-272.09
-290.89
-307.15
-321.87
-336.72
-354.03
-376.45
-406.49
-445.34
-491.55
-540.20
-583.48
-612.87
-622.33
-610.77
-582.44
-545.04
-506.42
-471.79
-442.61
-417.58
-394.59
-372.26
-350.35
-329.08
-308.13
-286.29
-262.06
-234.57
-204.30
-173.00
-143.23
-117.28
-96.42
-80.62
-68.79
-59.42
-51.29
-43.86
-37.28
-32.02
-28.33
-25.90
-23.78
-20.65
-15.37
-7.36
3.19
15.32
27.70
39.00
48.22
54.90
59.00
60.79
60.60
58.77
55.58
51.25
46.12
40.63
35.30
30.63
27.03
24.73
23.77
24.01
25.22
27.12
29.46
31.99
34.49
36.75
38.54
39.63
39.81
38.92
36.92
33.93
30.22
26.20
22.31
18.92
16.27
14.44
13.40
13.11
13.60
15.04
17.70
21.85
27.60
34.88
43.39
52.73
62.60
72.94
83.94
96.00
109.54
124.76
141.58
159.62
178.33
197.23
216.03
234.71
253.48
272.83
293.44
316.08
341.14
368.09
395.04
418.82
435.74
442.81
438.80
424.50
402.23
374.69
343.97
311.18
276.69
240.82
204.37
168.62
134.94
104.36
77.38
54.18
35.04
20.45
11.01
7.05
8.17
13.17
20.40
28.33
36.09
43.49
50.54
56.88
61.43
62.82
60.16
53.71
44.97
36.13
29.00
24.43
22.26
21.78
22.45
24.13
26.91
30.66
34.72
38.05
39.69
39.33
37.36
34.70
32.26
30.57
29.59
28.89
27.94
26.35
24.06
21.20
18.00
14.63
11.10
7.33
3.21
-1.28
-5.98
-10.63
-14.98
-18.80
-22.00
-24.64
-26.83
-28.67
-30.21
-31.43
-32.28
-32.67
-32.57
-31.99
-31.04
-29.94
-28.93
-28.23
-27.88
-27.77
-27.68
-27.42
-27.03
-26.71
-26.75
-27.28
-28.10
-28.80
-28.92
-28.25
-26.95
-25.46
-24.31
-23.88
-24.35
-25.72
-27.94
-30.80
-33.79
-35.94
-35.92
-32.44
-24.82
-13.44
0.13
13.63
24.72
31.76
34.11
32.18
27.09
20.36
13.55
8.11
5.15
5.24
8.27
13.46
19.45
24.75
28.04
28.53
26.09
21.27
15.17
9.18
4.74
2.96
4.29
8.38
14.10
19.91
24.32
26.31
25.58
22.50
17.93
12.94
8.53
5.51
4.36
5.09
7.29
10.13
12.59
13.68
12.77
9.72
4.94
-0.71
-6.15
-10.29
-12.40
-12.24
-10.13
-6.89
-3.53
-0.97
0.15
-0.44
-2.65
-6.19
-10.51
-14.98
-18.84
-21.41
-22.24
-21.30
-19.01
-16.07
-13.29
-11.34
-10.57
-11.03
-12.53
-14.69
-17.02
-18.97
-20.03
-19.84
-18.32
-15.73
-12.59
-9.61
-7.45
-6.63
-7.36
-9.53
-12.70
-16.10
-18.84
-20.09
-19.29
-16.40
-11.84
-6.41
-1.03
3.48
6.56
7.96
7.73
6.28
4.24
2.41
1.60
2.35
4.80
8.60
13.10
17.55
21.43
24.53
26.97
29.08
31.24
33.82
37.09
41.22
46.25
52.03
58.29
64.70
70.99
77.02
82.85
88.68
94.76
101.37
108.73
117.03
126.37
136.79
148.20
160.44
173.16
185.63
196.52
203.88
205.41
199.15
184.31
161.87
134.52
105.94
79.70
58.14
41.94
30.34
21.72
14.38
6.91
-1.98
-13.71
-29.79
-51.29
-78.08
-108.36
-138.99
-166.59
-188.91
-205.70
-218.48
-229.40
-239.85
-249.82
-258.36
-264.74
-269.35
-273.72
-279.43
-286.86
-294.56
-299.79
-299.99
-294.09
-282.87
-268.33
-252.45
-236.22
-219.50
-201.76
-183.02
-164.29
-147.13
-132.87
-121.68
-112.46
-103.37
-92.80
-80.19
-66.21
-52.31
-39.89
-29.66
-21.38
-14.31
-7.66
-1.20
4.74
9.50
12.54
13.76
13.57
12.71
12.13
12.88
16.05
22.71
33.56
48.51
66.42
85.26
102.64
116.72
126.79
133.50
138.45
143.40
149.51
157.05
165.42
173.66
180.97
186.91
191.43
194.56
196.20
195.96
193.17
187.10
177.07
162.67
143.86
121.06
95.22
67.79
40.65
15.76
-5.23
-21.27
-32.04
-37.90
-39.69
-38.63
-36.25
-34.39
-34.99
-39.81
-49.92
-65.34
-84.85
-106.18
-126.42
-142.59
-152.15
-153.52
-146.50
-132.40
-113.77
-93.62
-74.38
-57.02
-40.98
-24.81
-7.36
11.40
30.44
48.48
65.06
80.94
97.48
115.33
133.25
147.98
155.17
151.24
134.95
107.96
74.13
38.05
3.37
-28.21
-57.11
-85.36
-115.84
-151.31
-193.43
-241.62
-292.41
-339.68
-376.11
-395.47
-394.92
-376.04
-344.03
-305.43
-265.55
-226.78
-188.56
-148.91
-106.37
-61.67
-17.94
20.28
48.85
65.69
71.61
69.87
64.79
60.04
57.40
56.89
57.91
60.44
65.70
75.61
91.43
112.62
136.60
159.66
178.39
190.78
196.40
195.91
190.27
180.13
165.83
147.68
126.38
103.10
79.34
56.51
35.62
17.16
1.10
-12.85
-25.10
-35.93
-45.31
-52.77
-57.41
-58.09
-53.90
-44.58
-30.92
-14.67
1.86
16.55
28.03
36.00
41.00
43.96
45.75
47.04
48.31
50.03
52.58
56.10
60.26
64.19
66.82
67.28
65.32
61.37
56.33
51.10
46.33
42.33
39.17
36.87
35.45
34.84
34.73
34.65
34.05
32.56
30.17
27.32
24.66
22.83
22.07
22.08
22.12
21.32
19.12
15.54
11.11
6.69
3.00
0.36
-1.43
-2.85
-4.31
-5.87
-7.21
-7.82
-7.39
-6.04
-4.29
-2.80
-2.07
-2.27
-3.22
-4.60
-6.13
-7.63
-9.02
-10.24
-11.28
-12.16
-13.01
-13.95
-15.06
-16.28
-17.48
-18.58
-19.59
-20.59
-21.51
-22.06
-21.69
-19.89
-16.51
-11.89
-6.83
-2.25
1.15
3.14
4.00
4.29
4.58
5.22
6.28
7.53
8.67
9.43
9.72
9.59
9.24
8.93
8.86
9.20
9.98
11.13
12.51
13.99
15.43
16.73
17.77
18.45
18.68
18.52
18.17
18.02
18.44
19.62
21.44
23.47
25.12
25.92
25.67
24.47
22.65
20.58
18.49
16.43
14.26
11.78
8.85
5.47
1.86
-1.63
-4.57
-6.65
-7.73
-7.88
-7.33
-6.35
-5.14
-3.87
-2.70
-1.83
-1.54
-2.08
-3.59
-6.02
-9.12
-12.56
-16.01
-19.30
-22.37
-25.17
-27.55
-29.27
-30.08
-29.85
-28.76
-27.19
-25.62
-24.41
-23.68
-23.33
-23.17
-23.09
-23.11
-23.30
-23.74
-24.37
-25.01
-25.48
-25.68
-25.58
-25.22
-24.67
-23.94
-23.02
-21.93
-20.73
-19.55
-18.51
-17.69
-17.09
-16.63
-16.22
-15.76
-15.21
-14.53
-13.63
-12.36
-10.57
-8.10
-4.95
-1.24
2.77
6.83
10.78
14.64
18.59
22.80
27.35
32.06
36.49
39.83
41.10
39.28
33.68
24.31
11.97
-1.80
-15.26
-26.96
-36.25
-43.33
-48.88
-53.59
-57.73
-61.10
-63.15
-63.30
-60.92
-55.31
-45.69
-31.49
-12.82
9.07
31.69
51.89
66.87
75.16
77.10
74.54
69.91
65.16
61.19
57.78
54.25
50.12
45.52
41.18
37.89
36.04
35.31
34.78
33.39
30.51
26.11
20.78
15.27
10.13
5.51
1.28
-2.63
-6.05
-8.46
-9.24
-7.95
-4.62
0.31
6.15
12.30
18.52
24.94
32.01
40.18
49.65
60.19
71.11
81.56
90.87
98.77
105.55
111.76
117.89
124.13
130.26
135.87
140.56
144.06
146.15
146.54
144.80
140.46
133.25
123.24
110.90
96.87
81.74
65.86
49.44
32.54
15.33
-1.88
-18.64
-34.46
-48.87
-61.43
-71.80
-79.93
-86.30
-92.12
-99.26
-109.88
-125.73
-147.69
-175.37
-207.16
-240.44
-271.77
-297.34
-313.40
-317.14
-307.34
-285.11
-253.77
-218.05
-182.95
-152.47
-128.82
-112.02
-100.09
-89.61
-77.04
-60.09
-39.15
-17.57
-0.71
6.38
1.35
-14.05
-34.44
-52.99
-63.89
-64.18
-53.76
-34.77
-10.92
12.78
30.40
36.37
27.75
6.37
-20.80
-43.91
-54.15
-47.54
-26.29
2.89
32.40
57.02
75.05
87.16
94.24
96.03
91.30
79.20
60.48
37.67
14.12
-7.17
-24.46
-37.41
-46.52
-52.27
-54.63
-52.96
-46.30
-34.09
-16.84
3.60
24.32
42.37
55.91
64.98
71.51
78.37
87.93
101.03
116.59
132.33
145.95
156.28
163.63
169.29
174.65
180.47
186.59
192.16
196.20
198.04
197.55
194.67
189.08
179.99
166.25
146.81
121.00
88.72
50.39
7.28
-38.74
-84.98
-127.64
-162.21
-184.15
-189.89
-177.63
-147.30
-99.86
-37.75
35.15
113.27
189.33
254.96
302.47
326.62
326.57
306.42
273.13
234.37
196.45
163.05
135.10
111.76
91.46
68.05
38.22
1.43
-39.77
-80.78
-117.09
-146.15
-166.45
-180.70
-191.72
-201.01
-208.95
-215.26
-219.59
-221.75
-222.69
-224.16
-228.40
-237.37
-253.18
-277.72
-311.40
-351.92
-393.83
-429.42
-450.86
-453.12
-430.44
-384.87
-325.86
-266.09
-215.64
-178.57
-153.49
-136.75
-125.48
-118.66
-116.11
-117.17
-119.92
-121.52
-119.54
-112.94
-102.10
-88.28
-73.53
-59.68
-47.58
-36.78
-25.91
-13.44
1.58
19.25
39.13
60.30
81.46
101.51
119.98
137.16
153.84
170.91
189.12
209.68
233.57
261.25
292.08
323.93
353.00
374.55
384.13
379.19
361.20
334.68
305.78
280.18
261.17
248.92
241.11
234.39
226.00
216.12
206.55
199.81
197.88
201.41
209.89
222.34
238.23
249.74
251.40
239.40
212.51
172.27
122.17
66.31
8.49
-48.06
-100.60
-145.70
-180.80
-204.83
-218.66
-225.02
-227.66
-230.02
-234.14
-240.15
-245.75
-248.23
-245.60
-237.48
-225.28
-211.30
-197.79
-186.19
-176.83
-168.84
-161.55
-154.99
-149.62
-145.29
-140.26
-131.25
-114.81
-89.45
-56.74
-21.20
11.84
38.78
59.09
74.53
87.02
96.55
100.75
96.52
82.35
59.99
34.24
10.92
-5.53
-13.64
-14.76
-11.77
-7.60
-3.73
-0.25
3.36
7.25
10.59
11.83
9.79
4.64
-1.69
-6.35
-7.10
-3.37
3.36
10.25
14.45
14.36
10.02
2.72
-5.84
-14.23
-21.59
-27.53
-31.81
-34.22
-34.51
-32.72
-29.36
-25.32
-21.69
-19.33
-18.61
-19.33
-20.83
-22.13
-22.35
-20.93
-17.74
-13.09
-7.63
-2.33
1.82
4.05
4.24
2.91
1.14
0.03
0.30
2.08
4.90
7.89
10.14
10.94
9.87
7.00
2.78
-1.91
-5.99
-8.57
-9.20
-7.98
-5.43
-2.22
1.12
4.35
7.48
10.64
13.77
16.54
18.32
18.31
15.75
10.18
1.56
-9.87
-22.62
-34.27
-42.09
-43.65
-37.54
-23.78
-4.06
18.59
40.31
57.32
66.53
66.28
56.72
40.01
19.93
1.12
-12.02
-16.52
-11.63
0.82
17.08
32.60
43.30
46.53
41.47
29.00
11.32
-8.46
-26.86
-40.52
-46.85
-44.67
-34.68
-19.34
-2.30
12.67
22.66
26.17
23.11
14.49
1.96
-12.43
-26.31
-37.20
-42.94
-42.33
-35.57
-24.38
-11.44
0.51
9.36
13.97
13.97
9.47
0.97
-10.38
-22.59
-32.87
-38.46
-37.53
-29.95
-17.37
-2.56
11.44
22.06
27.44
26.43
18.62
4.60
-13.65
-32.83
-48.86
-58.18
-58.84
-51.14
-37.40
-21.03
-5.43
6.79
14.08
15.91
12.66
5.65
-2.91
-10.21
-13.59
-11.39
-3.57
8.24
21.40
33.05
40.90
43.66
41.00
33.44
22.22
9.34
-2.70
-11.19
-14.06
-10.49
-1.28
11.44
24.83
36.13
43.32
45.27
41.73
33.15
20.65
6.08
-8.06
-18.98
-24.37
-23.13
-15.84
-4.57
7.84
18.60
25.64
27.77
24.59
16.44
4.47
-9.25
-21.87
-30.48
-33.01
-28.97
-19.65
-7.48
4.82
14.96
21.46
23.59
21.21
14.84
5.84
-3.64
-10.96
-13.92
-11.42
-3.84
7.22
19.55
30.93
39.45
43.54
42.00
34.23
20.64
3.06
-15.32
-30.65
-39.51
-39.98
-32.18
-18.09
-0.91
15.90
29.28
37.02
37.79
31.25
18.10
0.21
-19.44
-37.27
-49.82
-54.69
-51.14
-40.27
-24.64
-7.57
7.52
17.74
21.05
16.71
5.49
-10.12
-26.32
-38.85
-44.15
-40.52
-28.54
-10.97
8.06
24.11
33.51
34.15
26.06
11.48
-5.59
-20.36
-28.53
-27.64
-17.81
-1.82
15.79
30.11
37.39
36.23
27.94
16.07
5.08
-1.21
-0.95
5.28
14.78
23.85
28.96
27.85
19.99
6.61
-9.68
-25.65
-38.26
-45.49
-46.78
-43.17
-36.90
-30.69
-26.95
-27.08
-31.22
-38.25
-46.18
-52.84
-56.53
-56.68
-54.06
-50.59
-48.52
-49.52
-53.95
-60.71
-67.65
-72.44
-73.41
-70.04
-62.98
-53.57
-43.23
-33.03
-23.49
-14.61
-6.12
2.40
11.33
20.88
31.05
41.59
52.01
61.70
70.02
76.39
80.39
81.83
80.85
77.86
73.49
68.36
62.94
57.38
51.62
45.54
39.16
32.73
26.66
21.32
16.92
13.45
10.75
8.60
6.82
5.27
3.84
2.42
0.90
-0.74
-2.36
-3.73
-4.60
-4.85
-4.57
-3.96
-3.27
-2.58
-1.81
-0.77
0.66
2.46
4.40
6.25
7.85
9.21
10.40
11.44
12.30
12.86
13.06
12.91
12.50
11.90
11.13
10.13
8.88
7.41
5.83
4.25
2.75
1.30
-0.13
-1.53
-2.77
-3.67
-4.11
-4.09
-3.73
-3.22
-2.73
-2.33
-1.99
-1.65
-1.24
-0.74
-0.18
0.40
0.92
1.35
1.67
1.91
2.08
2.19
2.20
2.07
1.78
1.39
1.01
0.76
0.72
0.93
1.30
1.71
2.06
2.30
2.44
2.50
2.50
2.37
2.03
1.43
0.53
-0.61
-1.92
-3.31
-4.71
-6.02
-7.19
-8.19
-9.00
-9.63
-10.11
-10.47
-10.74
-10.96
-11.18
-11.45
-11.83
-12.35
-12.96
-13.57
-14.01
-14.11
-13.71
-12.73
-11.23
-9.34
-7.25
-5.15
-3.16
-1.37
0.14
1.33
2.16
2.66
2.94
3.21
3.63
4.29
5.16
6.06
6.80
7.28
7.51
7.60
7.68
7.83
8.02
8.16
8.10
7.78
7.21
6.53
5.91
5.50
5.34
5.37
5.48
5.53
5.47
5.29
5.01
4.65
4.19
3.55
2.68
1.55
0.22
-1.18
-2.51
-3.65
-4.57
-5.38
-6.24
-7.30
-8.64
-10.22
-11.84
-13.30
-14.42
-15.08
-15.31
-15.14
-14.64
-13.84
-12.71
-11.27
-9.60
-7.87
-6.26
-4.98
-4.08
-3.45
-2.94
-2.34
-1.56
-0.64
0.25
0.95
1.32
1.41
1.34
1.25
1.29
1.56
2.07
2.83
3.80
4.94
6.24
7.65
9.09
10.49
11.73
12.68
13.21
13.31
13.04
12.60
12.22
12.06
12.20
12.59
13.13
13.72
14.33
14.93
15.54
16.13
16.67
17.13
17.53
18.00
18.81
20.21
22.40
25.38
28.81
32.17
34.96
36.93
38.34
39.87
42.37
46.45
52.22
59.22
66.74
74.05
80.71
86.70
92.26
97.74
103.41
109.50
116.16
123.49
131.33
139.07
145.51
148.82
146.87
137.91
121.12
97.00
67.13
33.64
-1.72
-37.89
-74.46
-110.90
-145.96
-177.44
-202.70
-219.64
-227.44
-226.89
-219.80
-208.22
-193.73
-177.25
-159.36
-140.73
-122.30
-105.11
-89.96
-77.10
-66.26
-56.98
-48.99
-42.48
-37.91
-35.74
-36.02
-38.30
-41.64
-45.01
-47.49
-48.46
-47.69
-45.23
-41.42
-36.80
-32.06
-27.87
-24.64
-22.37
-20.69
-19.06
-17.04
-14.55
-11.88
-9.45
-7.50
-6.02
-4.67
-3.03
-0.84
1.83
4.63
7.10
8.90
9.92
10.29
10.29
10.18
10.13
10.23
10.43
10.59
10.46
9.70
7.98
5.16
1.38
-3.01
-7.49
-11.60
-15.07
-17.78
-19.70
-20.76
-20.82
-19.78
-17.74
-14.92
-11.71
-8.41
-5.18
-2.06
0.90
3.51
5.40
6.27
6.05
5.12
4.22
4.19
5.53
8.22
11.75
15.37
18.47
20.88
22.70
24.19
25.53
26.64
27.35
27.53
27.32
27.05
27.11
27.76
29.00
30.63
32.34
33.88
35.08
35.90
36.44
36.91
37.58
38.61
39.97
41.33
42.25
42.38
41.55
39.74
37.00
33.39
28.94
23.70
17.83
11.71
5.82
0.61
-3.60
-6.61
-8.28
-8.49
-7.36
-5.33
-3.03
-1.12
-0.06
0.08
-0.35
-0.70
-0.27
1.12
3.23
5.79
8.79
12.36
16.51
21.04
25.64
30.06
33.55
35.42
35.60
34.91
34.55
35.47
38.05
42.23
47.74
52.98
56.12
56.12
53.51
49.91
46.89
45.29
45.08
45.24
42.31
31.89
10.51
-22.72
-66.16
-116.67
-170.51
-223.93
-263.88
-278.14
-262.34
-223.89
-176.16
-129.94
-90.27
-57.76
-30.84
-7.65
11.50
25.11
31.93
32.39
28.29
21.92
15.39
10.76
9.32
10.45
12.31
13.07
12.15
9.91
6.61
1.47
-5.44
-13.50
-21.30
-26.08
-24.24
-13.00
7.52
33.56
57.34
72.28
75.58
68.66
55.73
41.39
28.63
18.23
9.48
1.68
-4.60
-8.06
-7.50
-3.34
2.89
9.16
13.78
15.93
15.90
14.99
14.71
16.11
19.26
23.34
26.97
29.22
29.64
28.46
26.74
25.73
26.43
29.30
34.32
41.25
50.14
60.49
71.15
80.36
86.15
87.06
82.87
74.99
62.75
48.26
33.83
21.00
10.24
1.35
-6.12
-12.37
-17.44
-21.45
-24.34
-26.56
-28.68
-30.94
-33.02
-34.25
-33.95
-31.80
-28.10
-23.22
-17.89
-12.81
-8.41
-4.78
-1.89
0.28
1.60
1.91
1.32
-0.09
-2.19
-4.86
-7.95
-11.36
-14.92
-18.45
-21.76
-24.63
-27.08
-29.27
-31.34
-33.21
-34.58
-35.02
-34.26
-32.34
-29.64
-26.69
-23.94
-21.50
-19.15
-16.49
-13.22
-9.35
-5.20
-1.23
2.14
4.71
6.45
7.52
8.15
8.58
9.06
9.87
11.36
13.91
17.73
22.78
28.68
34.84
40.67
45.83
50.32
54.44
58.50
62.61
66.65
70.27
73.22
75.47
77.33
79.28
81.79
85.06
88.97
93.14
97.05
100.31
102.74
104.42
105.49
106.11
106.31
106.11
105.52
104.35
101.98
97.07
87.60
71.35
46.87
14.16
-24.98
-67.43
-109.66
-148.65
-182.41
-209.94
-230.77
-244.53
-250.87
-249.71
-241.53
-227.63
-209.90
-190.37
-170.77
-152.09
-134.69
-118.56
-103.66
-90.16
-78.42
-68.72
-61.00
-54.83
-49.61
-44.88
-40.47
-36.46
-32.84
-29.27
-25.16
-19.91
-13.37
-6.02
1.09
6.84
10.47
11.86
11.51
10.23
8.83
7.78
7.34
7.61
8.67
10.64
13.49
16.82
19.81
21.36
20.51
16.83
10.75
3.54
-3.07
-7.50
-8.84
-7.19
-3.57
0.39
3.05
3.24
0.61
-4.31
-10.32
-15.88
-19.58
-20.58
-18.87
-15.27
-11.13
-7.81
-6.10
-5.97
-6.62
-6.80
-5.33
-1.43
5.13
14.04
24.54
35.62
46.32
55.98
64.45
72.06
79.32
86.43
93.00
98.08
100.64
100.14
96.87
91.76
85.86
79.84
73.67
66.94
59.29
50.85
42.29
34.59
28.50
24.17
21.06
18.13
14.41
9.39
3.25
-3.37
-9.66
-15.06
-19.38
-22.68
-25.05
-26.41
-26.52
-25.29
-22.88
-19.82
-16.80
-14.31
-12.43
-10.90
-9.35
-7.63
-5.90
-4.49
-3.61
-3.16
-2.80
-2.14
-1.01
0.49
2.06
3.45
4.47
5.06
5.11
4.42
2.75
0.01
-3.57
-7.48
-11.02
-13.58
-14.80
-14.64
-13.26
-10.96
-8.00
-4.61
-1.01
2.55
5.78
8.39
10.20
11.24
11.78
12.23
12.96
14.13
15.60
17.05
18.08
18.49
18.30
17.75
17.09
16.51
15.97
15.20
13.80
11.30
7.35
1.96
-4.35
-10.53
-15.29
-17.39
-16.24
-12.05
-5.85
0.91
6.75
10.53
11.52
9.43
4.37
-3.11
-12.00
-20.93
-28.47
-33.60
-36.00
-35.95
-34.08
-30.79
-26.07
-19.57
-11.00
-0.49
11.31
23.39
34.75
44.63
52.53
58.12
61.11
61.28
58.56
53.27
46.13
38.16
30.52
24.27
20.22
18.80
19.99
23.32
27.95
32.95
37.54
41.25
43.88
45.25
44.93
42.28
36.67
28.04
17.10
5.38
-5.22
-13.12
-17.49
-18.41
-16.55
-12.66
-7.18
-0.16
8.45
18.31
28.33
36.75
41.59
41.21
34.59
21.37
1.49
-25.09
-58.18
-96.84
-138.50
-178.62
-211.14
-229.88
-230.42
-211.50
-175.42
-127.31
-73.67
-20.93
25.48
61.35
83.77
91.15
83.56
63.02
33.50
0.20
-31.55
-57.51
-75.17
-83.68
-83.33
-74.95
-59.70
-39.27
-15.99
7.19
27.31
42.11
50.67
53.54
52.39
49.35
46.27
44.32
43.83
44.40
45.29
45.75
45.33
44.02
42.03
39.57
36.62
33.08
28.95
24.61
20.73
17.96
16.30
15.00
12.71
8.21
0.99
-8.32
-18.21
-26.95
-33.26
-36.70
-37.62
-36.80
-35.03
-32.90
-30.71
-28.60
-26.57
-24.53
-22.17
-19.05
-14.63
-8.54
-0.68
8.55
18.37
27.80
35.89
42.05
46.03
47.97
48.20
47.18
45.41
43.42
41.68
40.54
40.15
40.48
41.35
42.57
44.08
45.87
47.94
50.26
52.73
55.22
57.63
59.92
62.06
63.98
65.49
66.39
66.51
65.84
64.55
62.86
61.05
59.25
57.37
55.00
51.47
45.97
37.88
27.00
13.62
-1.49
-17.33
-32.84
-47.28
-60.39
-72.71
-85.52
-100.62
-119.68
-143.33
-170.75
-199.96
-228.71
-255.39
-279.27
-299.69
-314.86
-321.30
-314.43
-290.44
-248.35
-191.10
-125.25
-58.94
0.19
46.53
76.59
88.45
81.71
58.40
24.12
-11.96
-38.99
-47.76
-33.93
0.45
48.28
100.41
149.09
189.92
221.78
245.26
260.98
268.88
268.86
261.94
250.85
239.65
232.37
231.25
235.65
241.91
244.61
238.61
221.18
193.24
158.82
123.42
91.82
66.54
47.58
33.33
22.04
12.95
6.59
4.30
7.40
16.23
29.83
46.00
61.77
74.14
80.67
79.87
71.32
55.69
34.50
9.90
-15.69
-39.93
-60.87
-77.21
-88.44
-94.80
-97.08
-96.35
-93.73
-90.16
-86.26
-82.33
-78.34
-74.03
-69.07
-63.34
-57.01
-50.55
-44.54
-39.40
-35.21
-31.68
-28.35
-24.77
-20.64
-15.82
-10.47
-4.99
-0.00
3.83
6.10
6.87
6.70
6.34
6.29
6.53
6.46
5.36
2.86
-0.68
-4.35
-7.17
-8.58
-8.67
-8.03
-7.36
-7.07
-7.27
-7.78
-8.39
-8.95
-9.39
-9.64
-9.63
-9.27
-8.50
-7.35
-5.93
-4.35
-2.69
-1.08
0.34
1.45
2.13
2.45
2.61
2.86
3.38
4.18
5.03
5.60
5.63
5.05
3.99
2.68
1.35
0.11
-1.04
-2.23
-3.54
-5.02
-6.72
-8.69
-11.06
-14.02
-17.74
-22.21
-27.18
-32.16
-36.56
-39.84
-41.72
-42.25
-41.78
-40.80
-39.75
-38.90
-38.24
-37.63
-36.86
-35.81
-34.48
-32.96
-31.32
-29.53
-27.50
-25.20
-22.70
-20.21
-18.02
-16.32
-15.12
-14.27
-13.54
-12.79
-12.01
-11.33
-10.94
-10.92
-11.31
-12.05
-13.04
-14.25
-15.64
-17.22
-18.94
-20.72
-22.46
-24.14
-25.75
-27.39
-29.08
-30.82
-32.48
-33.86
-34.76
-35.08
-34.89
-34.43
-33.99
-33.81
-33.93
-34.25
-34.51
-34.46
-33.94
-32.85
-31.18
-28.99
-26.40
-23.55
-20.69
-18.05
-15.89
-14.36
-13.51
-13.24
-13.41
-13.84
-14.37
-14.89
-15.31
-15.52
-15.41
-14.90
-13.95
-12.61
-10.99
-9.25
-7.55
-5.97
-4.59
-3.41
-2.45
-1.72
-1.23
-0.95
-0.84
-0.87
-0.98
-1.13
-1.25
-1.27
-1.15
-0.97
-0.94
-1.29
-2.22
-3.75
-5.67
-7.68
-9.51
-11.04
-12.33
-13.51
-14.73
-16.00
-17.24
-18.31
-19.17
-19.85
-20.43
-21.00
-21.54
-21.92
-21.96
-21.58
-20.79
-19.78
-18.79
-18.00
-17.48
-17.14
-16.82
-16.41
-15.90
-15.39
-14.95
-14.60
-14.22
-13.71
-13.00
-12.17
-11.41
-10.91
-10.78
-10.95
-11.20
-11.30
-11.08
-10.58
-9.94
-9.37
-9.01
-8.89
-9.02
-9.36
-9.87
-10.53
-11.25
-11.97
-12.62
-13.14
-13.58
-13.98
-14.34
-14.65
-14.84
-14.88
-14.81
-14.73
-14.74
-14.89
-15.16
-15.50
-15.90
-16.42
-17.11
-17.97
-18.88
-19.64
-20.05
-20.02
-19.54
-18.75
-17.76
-16.68
-15.55
-14.44
-13.40
-12.53
-11.87
-11.36
-10.91
-10.32
-9.49
-8.43
-7.25
-6.15
-5.30
-4.82
-4.67
-4.71
-4.70
-4.44
-3.85
-2.98
-2.05
-1.29
-0.89
-0.86
-1.14
-1.57
-2.02
-2.47
-2.96
-3.57
-4.33
-5.23
-6.19
-7.13
-8.02
-8.87
-9.70
-10.50
-11.24
-11.81
-12.15
-12.30
-12.38
-12.60
-13.14
-14.09
-15.42
-17.02
-18.82
-20.73
-22.79
-24.97
-27.24
-29.48
-31.52
-33.25
-34.62
-35.63
-36.29
-36.58
-36.36
-35.49
-33.85
-31.46
-28.47
-25.13
-21.68
-18.34
-15.18
-12.18
-9.30
-6.51
-3.82
-1.29
1.04
3.17
5.17
7.22
9.51
12.26
15.57
19.47
23.78
28.27
32.61
36.49
39.69
42.07
43.63
44.44
44.60
44.18
43.15
41.47
39.16
36.36
33.34
30.42
27.85
25.65
23.68
21.62
19.21
16.33
13.11
9.83
6.81
4.26
2.17
0.33
-1.52
-3.57
-5.84
-8.14
-10.22
-11.81
-12.73
-12.94
-12.45
-11.28
-9.52
-7.23
-4.58
-1.77
1.01
3.61
5.97
8.12
10.10
11.91
13.54
14.89
15.91
16.60
17.00
17.24
17.43
17.70
18.10
18.63
19.20
19.67
19.89
19.75
19.22
18.30
17.06
15.54
13.79
11.82
9.72
7.64
5.74
4.16
2.93
1.91
0.90
-0.28
-1.69
-3.22
-4.69
-5.92
-6.87
-7.62
-8.30
-9.07
-10.02
-11.23
-12.73
-14.46
-16.29
-17.96
-19.11
-19.48
-18.93
-17.57
-15.64
-13.38
-10.92
-8.27
-5.36
-2.15
1.30
4.81
8.17
11.20
13.82
16.05
17.95
19.61
21.05
22.29
23.30
24.10
24.71
25.20
25.62
26.04
26.51
27.06
27.64
28.16
28.50
28.49
28.07
27.20
25.94
24.40
22.62
20.64
18.41
15.96
13.31
10.60
7.98
5.59
3.51
1.69
0.08
-1.51
-3.20
-5.18
-7.52
-10.19
-13.07
-15.94
-18.58
-20.73
-22.21
-22.84
-22.50
-21.18
-18.92
-15.96
-12.58
-9.16
-6.02
-3.39
-1.35
0.16
1.28
2.17
2.92
3.58
4.10
4.43
4.54
4.40
4.05
3.55
3.02
2.60
2.53
3.00
4.14
5.95
8.28
10.89
13.53
15.94
17.95
19.42
20.22
20.31
19.72
18.60
17.16
15.62
14.15
12.82
11.65
10.58
9.49
8.34
7.05
5.65
4.14
2.53
0.78
-1.16
-3.33
-5.71
-8.20
-10.61
-12.70
-14.25
-15.07
-15.08
-14.25
-12.64
-10.39
-7.73
-4.88
-2.11
0.41
2.57
4.39
5.97
7.45
8.96
10.52
12.02
13.28
14.13
14.45
14.35
14.01
13.69
13.57
13.71
14.08
14.59
15.12
15.56
15.81
15.69
15.08
13.94
12.40
10.74
9.28
8.26
7.69
7.41
7.11
6.54
5.57
4.18
2.50
0.67
-1.19
-3.00
-4.71
-6.31
-7.85
-9.40
-11.05
-12.92
-15.00
-17.24
-19.42
-21.24
-22.34
-22.42
-21.35
-19.22
-16.33
-13.14
-10.11
-7.55
-5.51
-3.90
-2.50
-1.20
0.02
1.05
1.78
2.15
2.23
2.17
2.09
2.07
2.05
1.96
1.77
1.48
1.16
0.84
0.55
0.27
0.04
-0.05
0.18
0.82
1.87
3.17
4.48
5.51
6.12
6.27
6.03
5.49
4.73
3.76
2.57
1.20
-0.25
-1.70
-3.14
-4.59
-6.19
-8.04
-10.23
-12.77
-15.62
-18.66
-21.62
-24.13
-25.77
-26.16
-25.11
-22.73
-19.32
-15.30
-10.95
-6.42
-1.71
3.14
7.96
12.46
16.38
19.60
22.16
24.21
25.82
27.01
27.70
27.86
27.62
27.27
27.08
27.24
27.69
28.22
28.56
28.55
28.13
27.37
26.38
25.18
23.73
21.94
19.75
17.20
14.46
11.74
9.18
6.84
4.63
2.45
0.21
-2.06
-4.27
-6.33
-8.27
-10.24
-12.47
-15.15
-18.28
-21.64
-24.87
-27.46
-29.04
-29.31
-28.18
-25.67
-21.97
-17.33
-12.06
-6.49
-0.91
4.46
9.52
14.14
18.22
21.62
24.19
25.87
26.65
26.65
26.04
24.95
23.50
21.80
20.00
18.29
16.84
15.76
14.97
14.28
13.49
12.48
11.27
9.98
8.72
7.48
6.19
4.67
2.81
0.58
-1.94
-4.62
-7.36
-10.14
-13.02
-16.06
-19.35
-22.87
-26.53
-30.13
-33.37
-35.93
-37.51
-37.89
-36.94
-34.66
-31.14
-26.56
-21.19
-15.36
-9.43
-3.72
1.55
6.22
10.25
13.63
16.35
18.39
19.79
20.63
21.10
21.43
21.77
22.17
22.57
22.83
22.85
22.61
22.19
21.72
21.22
20.65
19.89
18.79
17.27
15.32
13.01
10.42
7.57
4.55
1.39
-1.81
-4.95
-7.99
-10.96
-13.94
-17.08
-20.47
-24.14
-28.01
-31.88
-35.43
-38.29
-40.05
-40.36
-39.05
-36.15
-31.91
-26.75
-21.14
-15.53
-10.19
-5.27
-0.73
3.52
7.56
11.42
15.00
18.17
20.80
22.80
24.16
24.96
25.31
25.34
25.21
25.03
24.87
24.75
24.59
24.27
23.70
22.81
21.60
20.07
18.22
16.03
13.53
10.78
7.86
4.90
1.93
-1.06
-4.08
-7.15
-10.22
-13.25
-16.20
-19.16
-22.24
-25.60
-29.33
-33.38
-37.52
-41.36
-44.43
-46.25
-46.45
-44.87
-41.61
-36.98
-31.44
-25.44
-19.33
-13.35
-7.58
-2.11
3.02
7.72
11.92
15.61
18.79
21.49
23.73
25.51
26.85
27.84
28.59
29.23
29.82
30.41
30.95
31.41
31.77
31.98
31.98
31.58
30.57
28.78
26.24
23.19
20.02
17.07
14.51
12.22
9.94
7.38
4.40
1.03
-2.56
-6.17
-9.70
-13.17
-16.70
-20.47
-24.62
-29.19
-34.07
-39.00
-43.53
-47.14
-49.33
-49.69
-48.04
-44.35
-38.88
-32.00
-24.25
-16.18
-8.28
-0.89
5.84
11.87
17.21
21.83
25.70
28.80
31.18
32.96
34.26
35.17
35.66
35.73
35.37
34.77
34.17
33.77
33.66
33.69
33.57
32.93
31.57
29.47
26.79
23.80
20.73
17.73
14.79
11.80
8.59
5.00
0.92
-3.62
-8.49
-13.43
-18.18
-22.50
-26.36
-29.89
-33.37
-37.18
-41.61
-46.72
-52.28
-57.70
-62.17
-64.79
-64.78
-61.67
-55.44
-46.55
-35.84
-24.42
-13.33
-3.41
4.94
11.68
17.01
21.23
24.52
26.97
28.59
29.48
29.81
29.89
30.00
30.36
31.04
31.99
33.08
34.13
34.96
35.47
35.56
35.18
34.37
33.09
31.34
29.10
26.40
23.25
19.73
15.88
11.76
7.35
2.70
-2.10
-6.90
-11.57
-16.08
-20.52
-25.11
-30.00
-35.20
-40.45
-45.25
-48.86
-50.51
-49.56
-45.73
-39.15
-30.44
-20.56
-10.57
-1.36
6.53
12.98
18.15
22.32
25.73
28.51
30.70
32.35
33.51
34.24
34.60
34.60
34.27
33.71
33.06
32.53
32.26
32.30
32.54
32.73
32.56
31.74
30.11
27.65
24.46
20.71
16.64
12.39
8.08
3.71
-0.73
-5.26
-9.79
-14.23
-18.51
-22.60
-26.63
-30.78
-35.29
-40.30
-45.78
-51.41
-56.55
-60.28
-61.59
-59.70
-54.26
-45.61
-34.71
-22.89
-11.45
-1.34
7.03
13.69
18.90
22.97
26.11
28.47
30.17
31.43
32.44
33.34
34.14
34.72
34.95
34.79
34.38
33.95
33.70
33.67
33.64
33.23
32.09
30.06
27.22
23.84
20.19
16.48
12.72
8.80
4.62
0.11
-4.71
-9.70
-14.68
-19.46
-23.95
-28.17
-32.27
-36.50
-41.14
-46.36
-52.11
-58.02
-63.40
-67.31
-68.76
-66.95
-61.58
-52.98
-42.03
-29.99
-18.07
-7.19
2.25
10.22
16.90
22.48
27.07
30.67
33.30
35.04
36.01
36.42
36.42
36.19
35.80
35.29
34.68
33.95
33.12
32.19
31.20
30.14
29.01
27.74
26.19
24.16
21.44
17.90
13.50
8.34
2.64
-3.31
-9.25
-15.01
-20.58
-26.08
-31.73
-37.78
-44.44
-51.70
-59.34
-66.80
-73.36
-78.23
-80.79
-80.74
-78.18
-73.54
-67.47
-60.72
-54.03
-48.13
-43.62
-40.93
-40.25
-41.43
-44.02
-47.29
-50.42
-52.61
-53.29
-52.12
-49.06
-44.30
-38.13
-30.83
-22.68
-13.99
-5.22
2.97
9.83
14.66
17.02
16.88
14.64
11.16
7.75
6.08
7.84
14.11
24.84
38.48
52.36
63.54
69.94
71.04
67.83
62.03
55.12
47.71
39.62
30.48
20.45
10.48
2.00
-3.76
-6.33
-6.23
-4.59
-2.66
-1.20
-0.29
0.58
2.01
4.35
7.43
10.63
13.26
14.81
15.26
15.01
14.68
14.85
15.83
17.67
20.18
23.06
26.01
28.78
31.22
33.22
34.77
35.90
36.64
36.99
36.92
36.34
35.21
33.50
31.22
28.44
25.20
21.59
17.64
13.41
8.95
4.34
-0.40
-5.28
-10.38
-15.80
-21.56
-27.51
-33.21
-37.90
-40.68
-40.73
-37.63
-31.54
-23.15
-13.47
-3.56
5.79
14.11
21.21
27.06
31.68
35.15
37.60
39.28
40.51
41.53
42.47
43.26
43.76
43.88
43.71
43.49
43.51
43.90
44.59
45.27
45.56
45.20
44.10
42.31
39.98
37.19
34.00
30.42
26.51
22.37
18.08
13.72
9.27
4.71
0.08
-4.56
-9.12
-13.59
-18.15
-23.06
-28.56
-34.68
-41.04
-46.88
-51.19
-53.01
-51.69
-47.09
-39.63
-30.11
-19.55
-8.96
0.79
9.11
15.73
20.64
24.10
26.48
28.16
29.44
30.52
31.44
32.24
32.94
33.55
34.12
34.67
35.15
35.53
35.81
36.01
36.17
36.31
36.35
36.15
35.48
34.13
31.96
29.04
25.59
21.96
18.45
15.25
12.31
9.44
6.36
2.88
-1.06
-5.37
-9.86
-14.34
-18.72
-22.97
-27.14
-31.33
-35.69
-40.41
-45.62
-51.27
-56.94
-61.85
-64.94
-65.20
-62.06
-55.54
-46.36
-35.67
-24.68
-14.30
-5.06
2.90
9.60
15.11
19.44
22.68
25.01
26.75
28.21
29.60
30.92
32.06
32.91
33.48
33.91
34.40
35.09
35.96
36.90
37.72
38.28
38.48
38.28
37.61
36.41
34.66
32.37
29.66
26.65
23.47
20.19
16.87
13.55
10.25
6.98
3.66
0.19
-3.57
-7.68
-12.07
-16.59
-20.99
-25.08
-28.77
-32.15
-35.50
-39.16
-43.41
-48.38
-53.93
-59.59
-64.64
-68.10
-69.04
-66.71
-60.87
-51.95
-40.92
-29.16
-17.99
-8.34
-0.60
5.30
9.76
13.14
15.71
17.64
19.07
20.21
21.28
22.46
23.76
25.09
26.27
27.22
27.96
28.61
29.36
30.29
31.34
32.29
32.84
32.70
31.70
29.84
27.30
24.35
21.27
18.21
15.24
12.34
9.42
6.40
3.17
-0.32
-4.11
-8.18
-12.45
-16.80
-21.11
-25.30
-29.38
-33.40
-37.48
-41.77
-46.37
-51.36
-56.57
-61.59
-65.58
-67.54
-66.50
-61.97
-54.12
-43.85
-32.49
-21.37
-11.45
-3.19
3.46
8.75
12.88
15.96
17.97
18.95
19.12
18.89
18.67
18.78
19.28
20.01
20.78
21.46
22.09
22.81
23.69
24.65
25.42
25.71
25.29
24.12
22.28
19.95
17.32
14.50
11.60
8.66
5.66
2.50
-0.96
-4.85
-9.15
-13.69
-18.22
-22.49
-26.38
-30.01
-33.66
-37.70
-42.40
-47.81
-53.71
-59.51
-64.39
-67.37
-67.58
-64.50
-58.15
-49.08
-38.32
-27.10
-16.52
-7.40
-0.04
5.61
9.94
13.42
16.43
19.20
21.74
23.97
25.77
27.07
27.83
28.06
27.81
27.18
26.37
25.60
25.08
24.90
24.94
24.90
24.44
23.29
21.38
18.86
16.01
13.10
10.28
7.54
4.72
1.64
-1.86
-5.77
-9.94
-14.13
-18.10
-21.68
-24.91
-27.94
-31.06
-34.59
-38.77
-43.65
-48.95
-54.05
-57.99
-59.71
-58.32
-53.45
-45.37
-34.99
-23.57
-12.40
-2.40
5.94
12.60
17.79
21.80
24.82
26.99
28.42
29.25
29.71
30.03
30.36
30.73
31.10
31.43
31.75
32.16
32.78
33.65
34.67
35.62
36.21
36.19
35.40
33.79
31.46
28.61
25.49
22.31
19.19
16.06
12.76
9.15
5.11
0.72
-3.81
-8.26
-12.40
-16.17
-19.60
-22.88
-26.28
-30.07
-34.48
-39.56
-45.07
-50.47
-54.86
-57.21
-56.62
-52.64
-45.43
-35.79
-24.94
-14.07
-4.08
4.55
11.79
17.72
22.48
26.18
28.90
30.85
32.30
33.51
34.59
35.50
36.08
36.22
35.92
35.33
34.69
34.20
33.96
33.93
33.95
33.82
33.34
32.35
30.76
28.61
26.02
23.14
20.14
17.09
13.99
10.75
7.20
3.24
-1.15
-5.84
-10.59
-15.07
-19.06
-22.48
-25.51
-28.52
-31.91
-35.94
-40.58
-45.42
-49.76
-52.76
-53.69
-52.08
-47.83
-41.26
-32.98
-23.78
-14.50
-5.88
1.51
7.37
11.64
14.46
16.10
16.91
17.23
17.38
17.59
18.05
18.78
19.72
20.71
21.56
22.19
22.61
22.93
23.27
23.65
23.95
24.01
23.59
22.55
20.87
18.64
16.00
13.13
10.16
7.12
3.98
0.64
-3.00
-6.96
-11.21
-15.59
-19.90
-23.98
-27.80
-31.48
-35.26
-39.44
-44.19
-49.50
-55.07
-60.33
-64.52
-66.90
-66.82
-63.94
-58.31
-50.40
-41.02
-31.18
-21.79
-13.54
-6.73
-1.31
3.00
6.48
9.33
11.66
13.50
14.89
15.87
16.55
17.01
17.34
17.62
17.98
18.53
19.37
20.52
21.84
23.04
23.72
23.53
22.25
19.90
16.78
13.28
9.79
6.50
3.36
0.18
-3.26
-7.05
-11.11
-15.26
-19.27
-22.95
-26.26
-29.30
-32.29
-35.54
-39.32
-43.79
-48.77
-53.74
-57.82
-59.99
-59.34
-55.38
-48.23
-38.65
-27.83
-17.04
-7.34
0.76
7.18
12.24
16.31
19.65
22.33
24.31
25.60
26.33
26.77
27.18
27.68
28.25
28.73
29.01
29.07
28.97
28.87
28.86
28.93
28.90
28.55
27.66
26.17
24.12
21.69
19.07
16.35
13.49
10.33
6.69
2.54
-2.01
-6.68
-11.12
-15.13
-18.69
-22.05
-25.61
-29.79
-34.85
-40.75
-47.06
-52.97
-57.40
-59.30
-57.91
-53.00
-45.00
-34.87
-23.88
-13.24
-3.84
3.86
9.80
14.23
17.45
19.78
21.42
22.51
23.14
23.41
23.41
23.30
23.18
23.12
23.13
23.24
23.49
23.88
24.44
25.10
25.70
26.01
25.87
25.16
23.89
22.11
19.82
17.04
13.71
9.84
5.51
0.95
-3.59
-7.87
-11.81
-15.45
-19.00
-22.74
-26.94
-31.72
-37.00
-42.43
-47.38
-51.01
-52.46
-51.02
-46.45
-38.99
-29.39
-18.68
-7.89
2.09
10.76
17.84
23.34
27.42
30.31
32.31
33.72
34.78
35.66
36.44
37.14
37.74
38.28
38.75
39.21
39.66
40.10
40.52
40.90
41.14
41.07
40.53
39.31
37.37
34.71
31.52
28.02
24.47
21.02
17.71
14.39
10.84
6.86
2.38
-2.48
-7.42
-12.14
-16.46
-20.45
-24.36
-28.55
-33.27
-38.50
-43.91
-48.88
-52.61
-54.27
-53.20
-49.09
-42.18
-33.22
-23.34
-13.67
-5.07
2.09
7.91
12.69
16.74
20.19
23.02
25.15
26.60
27.50
28.09
28.58
29.08
29.62
30.17
30.71
31.23
31.81
32.47
33.19
33.88
34.40
34.50
33.95
32.61
30.43
27.56
24.26
20.82
17.49
14.36
11.42
8.53
5.51
2.22
-1.38
-5.27
-9.28
-13.27
-17.14
-20.91
-24.75
-28.87
-33.49
-38.67
-44.21
-49.64
-54.27
-57.25
-57.80
-55.43
-50.06
-42.12
-32.51
-22.31
-12.59
-4.07
2.90
8.29
12.31
15.20
17.19
18.48
19.27
19.78
20.18
20.58
21.07
21.57
22.01
22.29
22.35
22.23
22.08
22.03
22.17
22.43
22.55
22.23
21.22
19.42
16.96
14.07
11.03
8.05
5.22
2.50
-0.21
-3.11
-6.37
-10.06
-14.12
-18.31
-22.29
-25.78
-28.69
-31.22
-33.77
-36.83
-40.71
-45.44
-50.56
-55.22
-58.33
-58.74
-55.62
-48.69
-38.34
-25.58
-11.78
1.69
13.73
23.76
31.69
37.82
42.61
46.45
49.52
51.77
52.92
52.64
50.73
47.20
42.34
36.68
30.80
25.22
20.35
16.33
13.01
9.88
6.19
1.17
-5.61
-14.02
-23.26
-32.20
-39.72
-45.29
-49.04
-51.69
-54.09
-56.87
-60.23
-63.93
-67.50
-70.40
-72.19
-72.57
-71.48
-69.11
-65.91
-62.54
-59.58
-57.33
-55.69
-54.12
-51.91
-48.49
-43.67
-37.71
-31.24
-25.01
-19.64
-15.48
-12.49
-10.43
-9.06
-8.24
-7.94
-8.00
-7.84
-6.25
-1.79
6.80
19.91
36.87
56.17
76.08
95.04
111.85
125.50
134.87
138.86
136.68
128.44
115.33
99.40
82.93
67.68
54.55
43.58
34.35
26.38
19.37
13.19
7.78
3.00
-1.39
-5.78
-10.58
-16.09
-22.37
-29.28
-36.42
-43.29
-49.45
-54.58
-58.53
-61.31
-63.00
-63.63
-63.18
-61.51
-58.51
-54.12
-48.42
-41.59
-33.93
-25.79
-17.50
-9.42
-1.90
4.76
10.35
14.73
17.81
19.52
19.76
18.54
16.06
12.73
8.96
4.91
0.24
-5.84
-14.08
-24.67
-36.83
-48.99
-59.35
-66.64
-70.58
-71.86
-71.71
-71.31
-71.38
-72.13
-73.44
-75.10
-77.03
-79.23
-81.69
-84.29
-86.70
-88.47
-89.14
-88.41
-86.27
-83.03
-79.19
-75.24
-71.48
-68.00
-64.70
-61.39
-57.86
-53.77
-48.62
-41.84
-32.99
-22.11
-9.83
2.77
14.45
24.24
31.63
36.54
39.18
39.75
38.43
35.43
31.11
26.04
20.90
16.29
12.60
9.90
8.07
6.84
5.89
4.98
3.90
2.52
0.78
-1.39
-4.08
-7.47
-11.66
-16.62
-22.03
-27.35
-32.01
-35.61
-38.17
-40.06
-41.76
-43.61
-45.61
-47.47
-48.80
-49.47
-49.69
-50.04
-51.19
-53.50
-56.79
-60.20
-62.49
-62.46
-59.41
-53.46
-45.47
-36.75
-28.62
-22.03
-17.41
-14.70
-13.59
-13.65
-14.51
-15.91
-17.71
-19.93
-22.69
-26.16
-30.33
-34.90
-39.09
-41.66
-41.16
-36.22
-26.00
-10.45
9.59
32.53
56.48
79.66
100.79
119.22
134.86
147.92
158.70
167.34
173.82
178.02
179.89
179.54
177.27
173.56
168.83
163.34
157.04
149.64
140.70
129.87
117.08
102.65
87.31
72.05
57.98
46.17
37.45
32.33
30.83
32.44
36.19
40.87
45.28
48.60
50.51
51.22
51.21
50.99
50.92
51.11
51.47
51.88
52.22
52.38
52.28
51.83
51.01
49.92
48.73
47.67
46.93
46.60
46.62
46.76
46.69
46.03
44.40
41.60
37.57
32.51
26.71
20.52
14.26
8.12
2.25
-3.27
-8.35
-12.94
-17.01
-20.71
-24.29
-28.12
-32.54
-37.62
-43.07
-48.14
-51.71
-52.68
-50.27
-44.39
-35.66
-25.27
-14.54
-4.56
4.08
11.25
17.11
21.83
25.51
28.23
30.09
31.31
32.19
32.94
33.63
34.21
34.59
34.77
34.89
35.18
35.87
37.02
38.52
40.07
41.21
41.52
40.64
38.43
34.98
30.60
25.77
20.89
16.31
12.19
8.57
5.36
2.43
-0.43
-3.46
-6.91
-10.99
-15.82
-21.44
-27.73
-34.45
-41.08
-46.90
-51.01
-52.59
-51.11
-46.52
-39.32
-30.40
-20.86
-11.74
-3.82
2.54
7.39
11.03
13.89
16.27
18.25
19.73
20.52
20.52
19.80
18.63
17.33
16.14
15.15
14.29
13.47
12.60
11.66
10.64
9.54
8.30
6.79
4.88
2.41
-0.70
-4.50
-8.95
-13.92
-19.20
-24.54
-29.69
-34.49
-38.89
-43.01
-47.04
-51.24
-55.75
-60.55
-65.35
-69.59
-72.56
-73.48
-71.74
-66.99
-59.32
-49.28
-37.78
-25.92
-14.73
-4.95
3.12
9.50
14.47
18.31
21.21
23.28
24.61
25.37
25.77
26.03
26.28
26.55
26.79
26.94
26.96
26.83
26.56
26.14
25.59
24.98
24.39
23.89
23.44
22.91
22.07
20.68
18.59
15.75
12.21
8.15
3.76
-0.71
-5.10
-9.31
-13.43
-17.62
-22.15
-27.18
-32.65
-38.21
-43.15
-46.64
-47.84
-46.22
-41.75
-34.83
-26.30
-17.14
-8.28
-0.41
6.08
11.09
14.71
17.14
18.65
19.51
20.00
20.31
20.59
20.87
21.14
21.32
21.37
21.25
20.96
20.55
20.05
19.51
18.96
18.41
17.82
17.10
16.12
14.76
12.92
10.57
7.76
4.58
1.15
-2.45
-6.16
-9.94
-13.82
-17.85
-22.11
-26.67
-31.51
-36.44
-40.94
-44.30
-45.73
-44.57
-40.62
-34.17
-26.02
-17.17
-8.55
-0.79
5.83
11.32
15.79
19.34
21.99
23.76
24.73
25.06
24.98
24.68
24.34
24.09
23.99
24.09
24.39
24.85
25.36
25.82
26.13
26.18
25.92
25.26
24.15
22.56
20.52
18.12
15.49
12.74
9.97
7.24
4.60
2.08
-0.31
-2.67
-5.20
-8.20
-11.93
-16.44
-21.47
-26.44
-30.54
-32.99
-33.21
-30.98
-26.49
-20.24
-12.94
-5.36
1.84
8.16
13.28
17.08
19.61
21.02
21.52
21.29
20.48
19.24
17.70
16.02
14.41
13.08
12.18
11.76
11.76
12.05
12.40
12.62
12.51
11.96
10.95
9.55
7.85
5.96
3.89
1.54
-1.23
-4.50
-8.23
-12.24
-16.23
-19.93
-23.24
-26.25
-29.24
-32.55
-36.46
-41.01
-45.97
-50.75
-54.55
-56.51
-55.93
-52.47
-46.27
-37.90
-28.21
-18.19
-8.72
-0.47
6.19
11.14
14.52
16.63
17.89
18.67
19.21
19.61
19.77
19.62
19.16
18.54
18.00
17.79
17.99
18.50
19.08
19.50
19.64
19.44
18.92
18.05
16.74
14.86
12.38
9.36
6.01
2.50
-1.07
-4.72
-8.51
-12.46
-16.55
-20.73
-25.04
-29.62
-34.57
-39.85
-45.04
-49.40
-51.98
-52.00
-49.06
-43.37
-35.62
-26.83
-17.99
-9.87
-2.93
2.68
6.97
10.04
12.03
13.09
13.45
13.36
13.03
12.64
12.20
11.71
11.13
10.54
10.05
9.82
9.86
10.07
10.23
10.10
9.57
8.60
7.29
5.72
3.87
1.69
-0.94
-4.04
-7.55
-11.29
-15.09
-18.83
-22.49
-26.12
-29.78
-33.53
-37.38
-41.39
-45.60
-50.04
-54.50
-58.51
-61.31
-62.00
-59.91
-54.80
-47.05
-37.53
-27.38
-17.66
-9.13
-2.13
3.36
7.55
10.68
12.95
14.51
15.54
16.21
16.68
17.04
17.28
17.33
17.11
16.64
16.06
15.58
15.40
15.56
15.98
16.43
16.65
16.39
15.51
13.98
11.93
9.51
6.90
4.22
1.46
-1.43
-4.54
-7.89
-11.39
-14.89
-18.30
-21.64
-25.10
-28.98
-33.50
-38.65
-44.10
-49.12
-52.79
-54.18
-52.62
-47.98
-40.61
-31.34
-21.20
-11.25
-2.33
4.96
10.35
13.87
15.82
16.61
16.76
16.66
16.57
16.55
16.55
16.48
16.31
16.11
16.04
16.25
16.88
17.92
19.22
20.49
21.36
21.54
20.93
19.63
17.88
15.93
13.88
11.65
9.08
6.05
2.58
-1.15
-4.87
-8.36
-11.49
-14.23
-16.71
-19.08
-21.58
-24.47
-27.92
-31.94
-36.23
-40.19
-42.99
-43.81
-42.05
-37.51
-30.45
-21.56
-11.76
-2.04
6.75
14.06
19.62
23.47
25.83
27.02
27.38
27.14
26.49
25.61
24.65
23.81
23.27
23.16
23.46
24.06
24.76
25.34
25.68
25.73
25.49
24.96
24.09
22.79
20.97
18.60
15.74
12.55
9.18
5.73
2.30
-1.12
-4.50
-7.82
-11.02
-14.12
-17.19
-20.44
-24.12
-28.35
-33.02
-37.62
-41.33
-43.20
-42.43
-38.63
-32.04
-23.38
-13.66
-3.91
5.10
12.91
19.34
24.37
28.00
30.31
31.45
31.70
31.42
30.96
30.53
30.21
29.96
29.69
29.38
29.08
28.89
28.88
29.09
29.45
29.82
29.96
29.63
28.68
27.05
24.79
22.03
18.93
15.62
12.19
8.69
5.16
1.66
-1.81
-5.23
-8.58
-11.86
-15.05
-18.09
-20.98
-23.83
-26.80
-30.13
-33.97
-38.22
-42.44
-45.83
-47.44
-46.42
-42.39
-35.56
-26.76
-17.14
-7.85
0.22
6.63
11.29
14.39
16.21
17.05
17.13
16.65
15.76
14.60
13.29
11.92
10.57
9.29
8.09
6.95
5.86
4.86
4.06
3.55
3.42
3.63
4.01
4.26
4.14
3.44
2.13
0.36
-1.69
-3.84
-6.04
-8.36
-10.93
-13.82
-17.00
-20.37
-23.72
-26.90
-29.86
-32.67
-35.45
-38.36
-41.54
-45.05
-48.88
-52.87
-56.66
-59.66
-61.14
-60.40
-56.98
-50.89
-42.56
-32.85
-22.78
-13.24
-4.86
2.10
7.64
11.94
15.13
17.31
18.46
18.58
17.76
16.28
14.54
13.01
12.09
12.03
12.85
14.41
16.46
18.74
21.06
23.27
25.31
27.10
28.56
29.58
30.05
29.93
29.25
28.13
26.73
25.21
23.60
21.88
19.90
17.52
14.66
11.34
7.73
4.01
0.36
-3.14
-6.60
-10.25
-14.36
-19.10
-24.39
-29.79
-34.56
-37.78
-38.62
-36.63
-31.86
-24.90
-16.67
-8.19
-0.33
6.37
11.65
15.51
18.04
19.39
19.70
19.11
17.81
16.01
13.97
11.95
10.22
8.95
8.27
8.21
8.73
9.76
11.14
12.68
14.09
15.12
15.59
15.47
14.85
13.89
12.74
11.47
10.05
8.38
6.36
3.94
1.14
-1.93
-5.16
-8.39
-11.57
-14.70
-17.91
-21.39
-25.20
-29.25
-33.12
-36.17
-37.66
-36.97
-33.80
-28.34
-21.19
-13.27
-5.52
1.32
6.88
11.12
14.23
16.47
18.01
18.92
19.26
19.13
18.73
18.29
17.97
17.84
17.83
17.86
17.89
17.94
18.03
18.17
18.29
18.29
18.02
17.36
16.27
14.77
12.96
10.97
8.91
6.80
4.56
2.02
-0.95
-4.41
-8.21
-12.09
-15.75
-18.99
-21.80
-24.37
-27.07
-30.23
-34.03
-38.38
-42.81
-46.58
-48.76
-48.55
-45.43
-39.44
-31.14
-21.51
-11.66
-2.59
5.04
10.97
15.27
18.21
20.12
21.35
22.15
22.71
23.12
23.38
23.43
23.20
22.75
22.20
21.76
21.63
21.89
22.43
23.02
23.38
23.25
22.49
21.06
19.06
16.67
14.09
11.52
9.04
6.62
4.08
1.22
-2.14
-6.00
-10.22
-14.57
-18.76
-22.64
-26.16
-29.43
-32.68
-36.20
-40.17
-44.53
-48.85
-52.35
-54.03
-53.06
-49.04
-42.25
-33.51
-23.98
-14.72
-6.47
0.50
6.19
10.75
14.30
16.89
18.57
19.40
19.58
19.31
18.84
18.34
17.91
17.60
17.44
17.47
17.73
18.21
18.85
19.52
20.01
20.09
19.61
18.46
16.68
14.49
12.13
9.86
7.79
5.79
3.62
0.97
-2.34
-6.26
-10.51
-14.76
-18.71
-22.30
-25.65
-29.01
-32.63
-36.72
-41.31
-46.23
-51.06
-55.05
-57.29
-56.88
-53.27
-46.46
-37.07
-26.13
-14.85
-4.25
4.95
12.42
18.14
22.30
25.21
27.21
28.58
29.50
30.05
30.26
30.16
29.84
29.46
29.20
29.22
29.60
30.35
31.39
32.55
33.58
34.17
34.06
33.07
31.24
28.75
25.84
22.72
19.43
15.93
12.11
7.93
3.46
-1.16
-5.76
-10.21
-14.46
-18.54
-22.55
-26.63
-31.00
-35.79
-40.94
-46.03
-50.25
-52.59
-52.08
-48.25
-41.28
-31.99
-21.60
-11.33
-2.12
5.53
11.47
15.79
18.69
20.39
21.19
21.40
21.37
21.39
21.66
22.23
22.98
23.78
24.46
24.93
25.18
25.24
25.21
25.12
24.93
24.48
23.60
22.13
20.09
17.58
14.80
11.88
8.85
5.57
1.95
-2.05
-6.31
-10.62
-14.77
-18.65
-22.30
-25.85
-29.47
-33.31
-37.51
-42.12
-47.05
-51.99
-56.29
-59.02
-59.27
-56.35
-50.15
-41.16
-30.41
-19.12
-8.40
0.98
8.68
14.63
18.98
21.97
23.86
24.96
25.59
26.06
26.55
27.15
27.81
28.44
28.94
29.30
29.58
29.91
30.41
31.14
32.06
32.96
33.57
33.57
32.74
31.01
28.51
25.48
22.20
18.90
15.68
12.48
9.20
5.71
1.98
-1.98
-6.01
-9.93
-13.57
-16.81
-19.75
-22.63
-25.82
-29.70
-34.38
-39.63
-44.74
-48.73
-50.51
-49.30
-44.84
-37.49
-28.10
-17.77
-7.55
1.76
9.69
16.08
20.93
24.42
26.72
28.09
28.80
29.09
29.16
29.17
29.19
29.25
29.39
29.62
29.98
30.47
31.09
31.82
32.62
33.35
33.88
33.99
33.48
32.22
30.19
27.57
24.61
21.59
18.67
15.81
12.87
9.63
5.98
1.90
-2.43
-6.78
-10.91
-14.67
-18.02
-21.04
-23.90
-26.85
-30.20
-34.13
-38.65
-43.44
-47.88
-51.14
-52.33
-50.80
-46.22
-38.80
-29.18
-18.35
-7.45
2.48
10.65
16.68
20.53
22.49
23.01
22.64
21.85
21.04
20.43
20.13
20.12
20.29
20.54
20.78
20.97
21.14
21.35
21.65
22.02
22.38
22.54
22.31
21.52
20.11
18.11
15.67
12.92
9.96
6.82
3.44
-0.23
-4.23
-8.55
-13.07
-17.65
-22.09
-26.22
-29.93
-33.27
-36.43
-39.78
-43.72
-48.48
-53.93
-59.44
-63.87
-65.85
-64.33
-58.88
-50.08
-39.37
-28.59
-19.41
-12.81
-8.93
-7.19
-6.83
-7.30
-8.61
-11.27
-15.95
-23.07
-32.45
-43.35
-54.70
-65.59
-75.58
-84.76
-93.46
-101.90
-109.92
-116.99
-122.56
-126.32
-128.20
-128.09
-125.57
-120.02
-111.08
-99.24
-86.09
-73.85
-64.54
-59.11
-56.97
-56.44
-55.60
-53.22
-49.08
-43.78
-37.93
-31.52
-23.78
-13.56
-0.26
15.43
31.40
44.50
51.76
51.57
44.56
33.38
21.73
12.93
8.82
9.37
13.11
18.02
22.42
25.53
27.50
29.10
31.32
34.93
40.27
47.13
54.72
61.75
66.74
68.48
66.62
62.11
57.27
55.32
59.44
71.54
91.32
116.10
141.54
163.12
177.64
184.21
184.14
180.01
174.22
167.97
161.03
152.33
140.90
126.65
110.50
93.85
77.83
62.83
48.59
34.63
20.81
7.51
-4.47
-14.48
-22.33
-28.27
-32.71
-35.73
-36.96
-35.67
-31.24
-23.62
-13.49
-2.13
8.96
18.46
25.45
29.54
30.85
29.97
27.87
25.66
24.23
23.90
24.41
25.29
26.51
28.78
33.43
41.68
53.76
68.47
83.51
96.28
104.96
109.12
109.47
107.18
103.13
97.59
90.35
81.21
70.32
58.31
46.21
35.12
26.05
19.81
16.78
16.93
19.69
24.19
29.47
35.27
41.88
50.30
61.77
77.12
96.15
117.34
138.06
155.11
166.63
171.95
172.06
168.98
164.45
158.78
150.43
136.74
114.86
85.18
49.85
12.75
-22.04
-52.08
-77.37
-100.12
-123.54
-151.63
-185.53
-226.27
-273.13
-323.01
-370.13
-406.76
-425.26
-420.60
-393.55
-347.03
-288.51
-225.69
-163.79
-104.40
-45.83
14.96
87.25
159.40
228.59
287.81
329.63
348.93
344.63
319.86
280.49
232.70
180.45
129.14
82.16
42.89
14.04
-3.97
-14.23
-22.84
-36.67
-61.11
-95.33
-135.70
-176.91
-214.60
-247.31
-276.73
-306.54
-341.08
-384.28
-436.48
-495.39
-555.01
-606.48
-640.69
-651.52
-638.09
-605.26
-561.83
-516.19
-474.37
-438.40
-407.19
-378.51
-350.80
-323.58
-296.93
-270.65
-243.53
-214.24
-182.03
-147.40
-112.07
-78.53
-48.90
-24.23
-4.17
12.81
28.74
45.32
63.46
83.09
103.43
123.55
142.86
161.30
179.38
197.75
216.90
236.92
257.60
278.68
300.01
321.54
342.90
363.14
380.66
393.63
400.76
401.89
398.10
391.25
383.20
375.33
368.35
362.59
358.38
356.09
356.05
358.18
361.94
366.35
370.29
372.58
371.87
366.56
354.91
335.48
307.89
273.39
234.81
195.95
160.33
130.17
105.70
85.22
65.76
44.11
17.63
-15.21
-54.58
-99.30
-147.03
-194.49
-238.06
-274.51
-301.76
-319.26
-327.95
-329.57
-325.87
-318.01
-306.54
-291.92
-275.11
-257.80
-242.11
-229.68
-220.81
-214.11
-206.80
-195.76
-178.74
-155.35
-127.20
-97.42
-69.50
-46.20
-28.76
-16.75
-8.57
-2.19
4.24
12.15
22.72
36.96
55.45
77.88
102.54
126.44
146.00
158.28
161.91
157.50
147.23
133.89
119.96
106.99
95.61
85.76
77.18
69.69
63.33
58.23
54.48
51.85
49.82
47.63
44.65
40.75
36.38
32.38
29.60
28.46
28.87
30.32
32.21
34.10
35.81
37.30
38.50
39.26
39.39
38.81
37.69
36.41
35.48
35.21
35.57
36.16
36.37
35.60
33.52
30.03
25.20
19.11
11.72
3.04
-6.80
-17.34
-27.89
-37.63
-45.91
-52.40
-57.14
-60.37
-62.39
-63.36
-63.30
-62.09
-59.63
-55.88
-51.02
-45.46
-39.90
-35.21
-32.27
-31.69
-33.58
-37.47
-42.40
-47.24
-51.13
-53.68
-54.99
-55.38
-55.10
-53.96
-51.28
-46.08
-37.47
-25.09
-9.39
8.32
26.22
42.59
56.17
66.45
73.34
76.95
77.28
74.26
68.15
59.70
50.01
40.08
30.46
21.42
13.39
7.42
4.91
6.86
12.93
21.25
29.20
34.77
37.60
38.96
40.59
43.32
46.30
47.44
44.67
37.27
26.39
14.44
3.96
-3.51
-7.86
-10.20
-12.32
-15.74
-21.23
-28.57
-36.71
-44.24
-49.82
-52.44
-51.46
-46.69
-38.61
-28.56
-18.65
-11.23
-7.97
-9.22
-13.93
-20.33
-26.84
-32.68
-37.86
-42.59
-46.74
-49.86
-51.61
-52.37
-53.33
-55.91
-60.69
-66.80
-72.02
-73.81
-70.52
-62.23
-50.79
-39.15
-30.22
-25.99
-27.02
-32.51
-40.77
-49.82
-57.95
-63.98
-67.39
-68.11
-66.42
-62.76
-57.56
-51.24
-44.17
-36.65
-28.84
-20.74
-12.17
-2.96
6.83
16.70
25.65
32.54
36.45
37.25
35.77
33.59
32.46
33.57
36.98
41.52
45.26
46.40
44.24
39.64
34.93
33.00
36.26
45.70
60.63
79.07
98.41
116.10
130.00
138.50
140.60
136.12
125.94
112.09
97.41
84.84
76.46
72.94
73.39
75.81
77.86
77.48
73.44
65.54
54.58
42.09
29.95
19.88
13.00
9.66
9.40
11.25
13.96
16.26
17.07
15.60
11.48
4.87
-3.45
-12.25
-20.07
-25.69
-28.47
-28.42
-26.22
-22.95
-19.84
-17.95
-17.99
-20.15
-23.97
-28.52
-32.53
-34.79
-34.51
-31.53
-26.27
-19.62
-12.60
-6.13
-1.00
2.21
3.05
1.41
-2.48
-7.89
-13.81
-19.16
-23.12
-25.36
-25.98
-25.42
-24.25
-22.97
-21.98
-21.45
-21.40
-21.66
-22.02
-22.24
-22.17
-21.76
-20.97
-19.80
-18.21
-16.35
-14.57
-13.48
-13.70
-15.64
-19.20
-23.76
-28.33
-31.93
-33.80
-33.56
-31.20
-27.00
-21.50
-15.44
-9.76
-5.38
-2.92
-2.49
-3.61
-5.42
-6.99
-7.70
-7.37
-6.21
-4.61
-2.93
-1.48
-0.56
-0.49
-1.54
-3.74
-6.70
-9.61
-11.45
-11.37
-9.00
-4.64
0.84
6.27
10.52
12.72
12.43
9.77
5.43
0.59
-3.36
-5.11
-3.94
0.06
5.96
12.26
17.34
19.99
19.84
17.49
14.37
12.36
13.09
17.53
25.68
36.69
49.30
62.17
74.26
84.86
93.61
100.43
105.65
110.00
114.43
119.81
126.53
134.41
142.85
151.24
159.08
165.73
169.90
169.28
160.71
141.13
108.69
63.89
10.00
-47.39
-101.56
-146.15
-176.67
-191.36
-191.40
-180.15
-161.97
-140.94
-119.98
-100.77
-84.14
-70.71
-61.13
-55.93
-55.07
-57.71
-62.41
-67.68
-72.61
-77.02
-81.33
-86.05
-91.35
-96.99
-102.37
-106.96
-110.47
-112.93
-114.59
