1539682074.00
64.000000
-0.00
-0.00
-0.00
-0.00
-0.00
-0.00
-0.00
-0.00
-0.00
-0.00
0.00
0.01
0.01
-0.00
-0.03
-0.05
-0.05
0.00
0.13
0.36
0.66
1.01
1.37
1.72
2.06
2.40
2.79
3.24
3.80
4.42
5.06
5.66
6.20
6.68
7.15
7.68
8.31
9.14
10.09
11.04
11.88
12.56
13.14
13.76
14.65
15.96
17.91
20.32
22.90
25.38
27.58
29.57
31.68
34.32
37.81
42.54
48.15
54.10
59.83
64.97
69.58
74.14
79.34
85.71
93.76
103.00
112.62
121.73
129.77
136.75
143.30
150.75
157.77
166.64
177.95
191.79
206.97
220.57
228.25
225.36
208.53
176.87
132.76
80.05
23.07
-34.94
-92.44
-149.16
-205.23
-260.37
-313.74
-363.87
-409.83
-450.91
-486.50
-515.74
-537.23
-549.22
-549.96
-538.37
-514.21
-478.67
-433.88
-382.45
-327.02
-269.84
-212.63
-156.66
-102.95
-52.37
-5.90
35.58
71.43
101.35
125.50
144.38
158.69
169.15
176.37
180.75
182.57
182.07
179.51
175.23
169.65
163.18
156.15
148.81
141.30
133.69
126.02
118.33
110.69
103.16
95.80
88.68
81.83
75.25
68.95
62.95
57.25
51.86
46.78
42.03
37.59
33.45
29.61
26.07
22.81
19.83
17.12
14.67
12.48
10.54
8.83
7.34
6.07
4.99
4.08
3.29
2.63
2.04
1.53
1.08
0.71
0.43
0.21
0.07
-0.04
-0.14
-0.23
-0.33
-0.43
-0.51
-0.55
-0.55
-0.52
-0.49
-0.51
-0.59
-0.74
-0.91
-1.07
-1.15
-1.14
-1.08
-1.04
-1.13
-1.40
-1.83
-2.35
-2.81
-3.09
-3.15
-3.05
-2.98
-3.12
-3.61
-4.43
-5.42
-6.31
-6.87
-7.02
-6.86
-6.68
-6.81
-7.44
-8.59
-9.99
-11.30
-12.17
-12.45
-12.22
-11.72
-11.30
-11.32
-12.14
-13.98
-16.78
-19.83
-21.81
-21.08
-16.18
-6.66
6.65
21.72
36.12
47.81
55.73
59.90
60.94
59.66
56.61
52.09
46.39
39.92
33.21
26.70
20.73
15.11
9.65
4.28
-0.80
-5.23
-8.61
-10.76
-11.84
-12.27
-12.56
-13.09
-13.93
-14.89
-15.70
-16.11
-16.09
-15.76
-15.34
-15.12
-15.29
-15.92
-16.93
-18.03
-18.67
-18.15
-15.82
-11.34
-4.93
2.59
10.01
16.08
19.90
21.13
19.98
17.03
12.96
8.38
3.74
-0.59
-4.39
-7.46
-9.68
-11.01
-11.43
-10.96
-9.64
-7.59
-5.02
-2.17
0.62
2.93
4.38
4.61
3.49
1.15
-1.93
-5.04
-7.40
-8.48
-8.21
-7.11
-6.11
-6.33
-8.39
-12.54
-18.29
-24.37
-29.06
-30.72
-28.35
-21.88
-12.16
-0.64
11.10
21.83
30.82
37.80
42.75
45.74
46.81
46.05
43.63
39.86
35.26
30.42
25.94
22.19
19.29
17.14
15.53
14.25
13.19
12.29
11.47
10.59
9.38
7.63
5.17
2.08
-1.42
-5.01
-8.37
-11.29
-13.74
-15.90
-18.12
-20.96
-24.99
-30.51
-37.33
-44.55
-50.64
-53.87
-52.83
-46.99
-36.87
-23.89
-9.85
3.62
15.37
24.86
31.91
36.55
38.84
38.91
37.02
33.57
29.15
24.39
19.91
16.13
13.31
11.44
10.35
9.82
9.67
9.87
10.41
11.22
12.05
12.42
11.84
9.95
6.78
2.73
-1.56
-5.52
-8.89
-11.75
-14.52
-17.67
-21.61
-26.53
-32.35
-38.65
-44.65
-49.26
-51.25
-49.60
-43.83
-34.31
-22.15
-8.95
3.70
14.60
23.12
29.17
32.92
34.63
34.54
32.83
29.79
25.77
21.20
16.56
12.26
8.62
5.89
4.21
3.58
3.83
4.63
5.59
6.30
6.48
5.98
4.78
2.96
0.66
-1.95
-4.72
-7.57
-10.53
-13.83
-17.77
-22.64
-28.44
-34.74
-40.64
-44.99
-46.59
-44.61
-38.84
-29.78
-18.50
-6.39
5.22
15.35
23.51
29.56
33.58
35.60
35.59
33.61
29.89
24.98
19.67
14.75
10.75
7.86
5.97
4.87
4.37
4.39
4.77
5.27
5.53
5.20
4.09
2.20
-0.31
-3.21
-6.36
-9.65
-13.03
-16.49
-20.18
-24.36
-29.34
-35.17
-41.34
-46.68
-49.68
-48.99
-44.01
-35.17
-23.70
-11.19
1.01
12.01
21.33
28.68
33.83
36.56
36.92
35.27
32.26
28.55
24.57
20.48
16.30
12.11
8.25
5.21
3.35
2.76
3.07
3.66
3.92
3.49
2.35
0.71
-1.19
-3.23
-5.40
-7.78
-10.42
-13.39
-16.76
-20.73
-25.53
-31.23
-37.50
-43.46
-47.77
-48.99
-46.14
-38.95
-28.13
-15.07
-1.48
11.07
21.51
29.29
34.41
37.16
37.93
37.10
34.98
31.80
27.85
23.46
19.06
15.08
11.84
9.53
8.11
7.46
7.34
7.52
7.80
7.93
7.68
6.79
5.11
2.59
-0.59
-4.17
-7.79
-11.24
-14.57
-18.06
-22.17
-27.27
-33.30
-39.67
-45.23
-48.57
-48.49
-44.37
-36.40
-25.48
-12.95
-0.25
11.41
21.22
28.77
34.00
37.04
38.12
37.46
35.29
31.91
27.74
23.26
18.99
15.34
12.55
10.67
9.56
9.12
9.16
9.53
9.98
10.17
9.73
8.41
6.19
3.26
-0.03
-3.35
-6.49
-9.43
-12.32
-15.41
-19.01
-23.39
-28.65
-34.57
-40.47
-45.23
-47.56
-46.42
-41.38
-32.85
-21.92
-10.01
1.62
12.03
20.72
27.50
32.32
35.18
36.16
35.42
33.25
30.00
26.05
21.82
17.70
14.06
11.18
9.18
8.03
7.55
7.54
7.81
8.20
8.53
8.48
7.76
6.15
3.64
0.51
-2.78
-5.85
-8.51
-10.87
-13.25
-16.00
-19.43
-23.71
-28.80
-34.31
-39.51
-43.34
-44.61
-42.47
-36.71
-27.92
-17.31
-6.30
3.95
12.77
19.96
25.51
29.44
31.66
32.04
30.56
27.44
23.15
18.30
13.58
9.51
6.39
4.29
3.12
2.72
2.91
3.55
4.40
5.18
5.54
5.14
3.85
1.73
-0.93
-3.77
-6.57
-9.23
-11.91
-14.90
-18.49
-22.89
-28.00
-33.39
-38.19
-41.33
-41.79
-38.97
-32.89
-24.24
-14.11
-3.66
6.11
14.57
21.39
26.46
29.70
31.11
30.70
28.63
25.16
20.68
15.71
10.80
6.53
3.33
1.42
0.76
1.03
1.80
2.63
3.18
3.28
2.83
1.79
0.17
-1.99
-4.55
-7.32
-10.13
-12.91
-15.79
-19.06
-23.11
-28.18
-34.23
-40.73
-46.77
-51.13
-52.65
-50.56
-44.66
-35.48
-24.08
-11.78
0.13
10.68
19.31
25.81
30.18
32.52
32.91
31.52
28.61
24.61
20.16
15.88
12.26
9.49
7.51
6.06
4.95
4.12
3.62
3.48
3.59
3.61
3.13
1.85
-0.27
-2.97
-5.84
-8.54
-10.97
-13.34
-16.08
-19.63
-24.35
-30.28
-37.09
-44.05
-50.06
-53.89
-54.40
-50.93
-43.52
-32.98
-20.60
-7.85
4.02
14.21
22.29
28.13
31.74
33.18
32.59
30.28
26.70
22.40
17.96
13.83
10.32
7.59
5.65
4.45
3.93
4.01
4.54
5.28
5.93
6.15
5.70
4.46
2.51
0.02
-2.82
-5.88
-9.15
-12.73
-16.84
-21.74
-27.63
-34.44
-41.68
-48.36
-53.15
-54.73
-52.23
-45.52
-35.30
-22.87
-9.71
2.82
13.81
22.71
29.33
33.67
35.78
35.83
34.09
30.98
27.02
22.80
18.82
15.45
12.86
11.07
10.02
9.61
9.73
10.25
10.95
11.54
11.66
11.00
9.39
6.86
3.65
0.12
-3.37
-6.63
-9.68
-12.85
-16.64
-21.59
-27.94
-35.44
-43.11
-49.45
-52.78
-51.82
-46.14
-36.30
-23.74
-10.21
2.72
14.03
23.24
30.25
35.08
37.74
38.28
36.83
33.73
29.43
24.48
19.40
14.67
10.65
7.64
5.79
5.10
5.33
6.08
6.86
7.14
6.56
4.92
2.24
-1.26
-5.26
-9.47
-13.71
-17.99
-22.50
-27.57
-33.51
-40.44
-48.14
-55.94
-62.72
-67.18
-68.18
-65.12
-58.15
-48.15
-36.46
-24.47
-13.27
-3.54
4.47
10.76
15.50
18.91
21.26
22.92
24.31
25.83
27.84
30.50
33.76
37.39
41.02
44.37
47.23
49.51
51.16
52.00
51.76
50.09
46.81
42.07
36.32
30.19
24.24
18.71
13.47
8.15
2.25
-4.60
-12.52
-21.24
-30.05
-37.85
-43.26
-45.02
-42.35
-35.22
-24.47
-11.50
2.13
15.09
26.51
35.87
42.89
47.35
49.13
48.24
45.05
40.24
34.69
29.30
24.68
21.13
18.63
16.98
16.00
15.58
15.70
16.33
17.30
18.22
18.58
17.88
15.84
12.53
8.34
3.78
-0.70
-4.87
-8.78
-12.69
-16.95
-21.91
-27.84
-34.76
-42.27
-49.48
-55.00
-57.32
-55.27
-48.48
-37.57
-23.88
-9.11
5.24
18.07
28.78
37.02
42.65
45.57
45.87
43.83
40.03
35.19
30.10
25.45
21.70
19.04
17.42
16.61
16.38
16.50
16.90
17.54
18.33
19.01
19.20
18.44
16.42
13.07
8.65
3.62
-1.45
-6.12
-10.19
-13.78
-17.30
-21.29
-26.25
-32.46
-39.70
-47.26
-53.89
-58.12
-58.62
-54.69
-46.41
-34.67
-20.88
-6.52
7.12
19.15
29.05
36.51
41.32
43.41
42.85
40.03
35.64
30.56
25.72
21.87
19.41
18.35
18.37
18.98
19.79
20.58
21.33
22.10
22.89
23.54
23.74
23.17
21.59
18.92
15.27
10.88
6.05
1.09
-3.72
-8.21
-12.37
-16.40
-20.63
-25.50
-31.31
-37.99
-44.97
-51.14
-55.08
-55.45
-51.45
-43.13
-31.39
-17.76
-3.88
8.88
19.74
28.44
35.00
39.49
41.84
41.92
39.77
35.72
30.47
24.91
19.93
16.17
13.84
12.81
12.76
13.27
14.05
14.95
15.93
16.94
17.85
18.42
18.24
16.97
14.40
10.62
6.00
1.07
-3.69
-7.94
-11.65
-14.97
-18.17
-21.62
-25.64
-30.57
-36.55
-43.38
-50.31
-56.09
-59.22
-58.45
-53.19
-43.79
-31.43
-17.70
-4.16
8.09
18.48
26.83
33.05
37.04
38.62
37.74
34.63
29.90
24.41
19.08
14.64
11.53
9.84
9.44
10.05
11.39
13.16
15.05
16.79
18.12
18.87
18.86
17.95
15.99
12.92
8.81
3.98
-1.07
-5.82
-9.94
-13.47
-16.76
-20.33
-24.63
-29.88
-36.00
-42.67
-49.29
-54.97
-58.63
-59.12
-55.54
-47.62
-35.95
-21.88
-7.14
6.63
18.30
27.38
33.85
37.88
39.67
39.37
37.20
33.54
28.98
24.17
19.76
16.24
13.90
12.75
12.63
13.26
14.32
15.56
16.81
17.95
18.82
19.21
18.85
17.48
14.98
11.47
7.25
2.70
-1.85
-6.23
-10.44
-14.57
-18.69
-22.87
-27.15
-31.67
-36.65
-42.26
-48.45
-54.76
-60.25
-63.60
-63.51
-59.10
-50.33
-38.00
-23.61
-8.84
4.84
16.47
25.64
32.29
36.59
38.68
38.75
37.01
33.77
29.51
24.85
20.46
16.95
14.73
13.88
14.19
15.21
16.46
17.60
18.51
19.21
19.75
20.06
19.93
19.07
17.24
14.35
10.50
5.95
0.99
-4.09
-9.05
-13.73
-18.08
-22.14
-26.06
-30.12
-34.66
-39.93
-45.94
-52.27
-58.01
-61.89
-62.59
-59.15
-51.30
-39.66
-25.55
-10.64
3.52
15.82
25.73
33.18
38.31
41.25
42.09
40.91
37.93
33.62
28.69
23.91
19.94
17.14
15.54
14.93
14.97
15.44
16.20
17.16
18.22
19.21
19.83
19.81
18.96
17.21
14.62
11.30
7.37
2.93
-1.82
-6.64
-11.26
-15.46
-19.19
-22.66
-26.26
-30.48
-35.69
-41.94
-48.80
-55.33
-60.21
-62.04
-59.80
-53.17
-42.68
-29.59
-15.52
-1.94
10.08
19.98
27.59
32.86
35.79
36.38
34.77
31.38
26.83
21.88
17.23
13.40
10.66
9.08
8.54
8.82
9.65
10.74
11.91
13.04
14.03
14.76
14.97
14.37
12.67
9.83
6.08
1.89
-2.23
-5.94
-9.17
-12.14
-15.24
-18.90
-23.50
-29.22
-35.93
-43.03
-49.43
-53.71
-54.52
-50.99
-43.17
-31.98
-18.94
-5.63
6.68
17.32
26.06
32.85
37.62
40.19
40.42
38.36
34.40
29.26
23.78
18.77
14.76
12.03
10.52
9.97
10.11
10.64
11.39
12.25
13.13
13.90
14.30
13.99
12.65
10.06
6.27
1.57
-3.52
-8.44
-12.79
-16.41
-19.49
-22.44
-25.76
-29.92
-35.20
-41.53
-48.48
-55.15
-60.33
-62.69
-61.14
-55.15
-44.97
-31.61
-16.57
-1.50
12.20
23.64
32.41
38.49
42.04
43.27
42.37
39.60
35.36
30.23
24.95
20.28
16.79
14.73
14.00
14.26
15.08
16.16
17.35
18.60
19.79
20.71
20.96
20.16
18.09
14.78
10.51
5.68
0.75
-3.95
-8.26
-12.20
-15.95
-19.86
-24.35
-29.85
-36.54
-44.25
-52.27
-59.38
-64.06
-64.91
-61.03
-52.37
-39.82
-24.93
-9.48
4.97
17.44
27.49
35.11
40.38
43.37
44.05
42.50
39.03
34.24
28.92
23.92
19.87
17.10
15.59
15.11
15.32
15.93
16.78
17.79
18.87
19.83
20.38
20.14
18.80
16.21
12.44
7.74
2.44
-3.16
-8.83
-14.41
-19.79
-25.00
-30.18
-35.59
-41.51
-47.91
-54.30
-59.62
-62.48
-61.63
-56.39
-46.88
-34.04
-19.28
-4.11
10.17
22.56
32.43
39.36
43.22
44.09
42.37
38.68
33.79
28.46
23.29
18.65
14.71
11.48
8.97
7.26
6.52
6.92
8.44
10.79
13.33
15.21
15.65
14.16
10.76
6.00
0.77
-4.00
-7.59
-9.76
-10.68
-10.93
-11.30
-12.58
-15.34
-19.68
-25.02
-30.09
-33.20
-32.75
-27.77
-18.40
-5.83
7.97
20.84
30.99
37.40
39.78
38.45
34.13
27.68
20.06
12.14
4.64
-1.92
-7.33
-11.57
-14.71
-16.76
-17.59
-16.99
-14.81
-11.22
-6.83
-2.75
-0.27
-0.33
-3.02
-7.27
-11.11
-12.50
-10.26
-4.84
1.71
6.42
6.67
1.17
-9.50
-23.10
-36.48
-46.54
-51.01
-48.93
-40.69
-27.72
-12.12
3.98
18.81
31.26
40.76
47.13
50.33
50.36
47.49
42.30
35.78
29.07
23.16
18.49
14.96
12.11
9.46
6.89
4.67
3.32
3.25
4.45
6.38
8.15
8.90
8.16
5.90
2.53
-1.42
-5.52
-9.58
-13.64
-17.92
-22.68
-28.20
-34.65
-41.99
-49.74
-56.87
-61.89
-63.25
-59.84
-51.55
-39.31
-24.85
-10.09
3.40
14.72
23.62
30.18
34.55
36.77
36.85
34.98
31.60
27.40
23.09
19.27
16.22
14.00
12.48
11.50
11.03
11.11
11.81
13.09
14.64
15.94
16.26
15.02
11.94
7.22
1.46
-4.57
-10.17
-15.05
-19.26
-23.19
-27.38
-32.38
-38.58
-46.02
-54.19
-61.93
-67.56
-69.34
-66.03
-57.43
-44.48
-28.94
-12.81
2.27
15.38
26.23
34.88
41.40
45.64
47.43
46.69
43.68
39.03
33.64
28.43
24.14
21.13
19.41
18.69
18.62
18.94
19.56
20.52
21.79
23.15
24.08
23.92
22.10
18.37
13.02
6.73
0.34
-5.49
-10.52
-14.99
-19.38
-24.25
-29.97
-36.73
-44.53
-53.19
-62.23
-70.69
-77.11
-79.84
-77.44
-69.36
-56.22
-39.71
-22.01
-5.08
9.97
22.87
33.81
42.87
49.61
53.23
53.14
49.52
43.56
37.09
31.83
28.66
27.38
27.07
26.74
25.96
24.94
24.14
23.82
23.78
23.47
22.39
20.32
17.43
14.03
10.27
6.08
1.28
-4.25
-10.35
-16.71
-23.01
-29.06
-34.94
-40.92
-47.29
-54.16
-61.15
-67.35
-71.38
-71.71
-67.27
-57.82
-44.18
-27.94
-10.96
5.23
19.69
32.07
42.25
50.07
55.17
57.18
56.01
52.13
46.51
40.41
34.96
30.83
28.12
26.44
25.26
24.15
22.98
21.90
21.13
20.75
20.56
20.14
19.00
16.89
13.81
10.06
5.98
1.78
-2.63
-7.60
-13.60
-21.01
-29.93
-40.00
-50.34
-59.58
-66.12
-68.49
-65.82
-58.10
-46.22
-31.65
-16.01
-0.63
13.59
26.15
36.71
44.94
50.55
53.32
53.29
50.75
46.19
40.20
33.41
26.45
19.96
14.55
10.73
8.75
8.54
9.66
11.39
12.90
13.42
12.38
9.52
4.90
-1.15
-8.09
-15.34
-22.35
-28.76
-34.54
-40.02
-45.85
-52.88
-61.82
-72.86
-85.31
-97.51
-107.16
-111.84
-109.78
-100.41
-84.46
-63.70
-40.35
-16.49
6.26
26.81
44.47
58.78
69.47
76.52
80.18
81.02
79.74
77.06
73.58
69.68
65.60
61.48
57.49
53.86
50.82
48.47
46.63
44.85
42.46
38.86
33.78
27.39
20.30
13.25
6.87
1.36
-3.50
-8.29
-13.77
-20.61
-29.19
-39.41
-50.48
-60.88
-68.65
-71.85
-69.18
-60.44
-46.63
-29.63
-11.59
5.56
20.55
32.71
41.79
47.75
50.65
50.67
48.20
43.85
38.40
32.61
27.13
22.38
18.58
15.83
14.12
13.42
13.61
14.51
15.80
17.03
17.69
17.33
15.64
12.61
8.52
3.84
-0.95
-5.46
-9.59
-13.57
-17.89
-23.25
-30.25
-39.10
-49.31
-59.57
-67.85
-72.01
-70.44
-62.63
-49.40
-32.56
-14.32
3.36
19.14
32.33
42.66
49.99
54.26
55.52
54.07
50.50
45.59
40.10
34.63
29.50
24.84
20.71
17.15
14.28
12.21
10.98
10.52
10.57
10.74
10.58
9.72
7.88
5.00
1.21
-3.23
-8.04
-12.99
-18.06
-23.45
-29.55
-36.73
-45.03
-53.89
-62.14
-68.07
-70.02
-66.84
-58.35
-45.42
-29.64
-12.90
3.17
17.45
29.33
38.57
45.11
48.93
50.10
48.79
45.32
40.18
33.94
27.23
20.74
15.12
10.90
8.40
7.68
8.47
10.24
12.28
13.79
14.10
12.73
9.59
5.00
-0.37
-5.71
-10.40
-14.21
-17.45
-20.89
-25.46
-31.93
-40.48
-50.45
-60.33
-68.07
-71.59
-69.37
-60.99
-47.18
-29.72
-10.82
7.34
23.15
35.69
44.72
50.43
53.26
53.65
51.98
48.57
43.76
37.98
31.78
25.78
20.51
16.33
13.40
11.68
11.08
11.40
12.32
13.39
14.01
13.58
11.71
8.32
3.75
-1.41
-6.62
-11.56
-16.30
-21.27
-27.06
-34.22
-42.98
-53.03
-63.41
-72.57
-78.61
-79.82
-75.19
-64.79
-49.79
-32.19
-14.24
2.22
16.04
26.84
34.75
40.04
42.93
43.53
41.91
38.25
32.95
26.54
19.69
13.07
7.28
2.77
-0.22
-1.79
-2.39
-2.75
-3.67
-5.73
-9.16
-13.76
-19.11
-24.86
-30.97
-37.80
-45.83
-55.43
-66.50
-78.49
-90.64
-102.43
-113.78
-124.98
-136.25
-147.22
-156.78
-163.40
-165.94
-164.16
-158.48
-149.30
-136.49
-119.45
-98.14
-74.14
-50.86
-32.24
-20.60
-14.92
-10.83
-2.40
14.99
42.59
77.92
116.35
153.21
185.34
211.38
230.91
243.61
249.07
247.27
239.11
226.65
212.67
199.74
189.36
181.63
175.51
169.45
162.17
153.15
142.85
132.37
123.02
115.76
110.95
108.10
106.00
102.88
96.79
86.22
70.67
50.96
29.15
7.81
-11.03
-26.74
-40.34
-53.74
-68.38
-84.01
-98.27
-107.53
-108.54
-100.10
-83.77
-63.31
-43.23
-27.20
-17.20
-13.57
-15.69
-22.68
-33.65
-47.41
-62.21
-75.90
-86.48
-92.93
-95.58
-96.00
-96.33
-98.49
-103.56
-111.68
-122.21
-134.02
-145.61
-155.27
-161.22
-161.92
-156.47
-144.82
-127.91
-107.42
-85.34
-63.60
-43.74
-26.74
-13.11
-2.95
3.93
7.88
9.44
9.20
7.86
6.06
4.42
3.45
3.53
4.86
7.43
10.97
15.03
19.05
22.47
24.86
26.04
26.04
25.03
23.17
20.50
17.02
12.69
7.52
1.50
-5.40
-13.34
-22.39
-32.33
-42.35
-50.96
-56.17
-56.13
-49.77
-37.19
-19.79
0.18
20.24
38.24
52.72
63.07
69.30
71.88
71.46
68.70
64.18
58.45
52.00
45.36
39.11
33.76
29.64
26.74
24.73
23.09
21.33
19.26
17.03
15.02
13.58
12.83
12.48
11.96
10.59
7.79
3.17
-3.46
-12.14
-22.58
-33.96
-44.80
-53.02
-56.51
-53.77
-44.56
-30.05
-12.44
5.75
22.45
36.44
47.29
55.05
59.84
61.64
60.39
56.19
49.52
41.26
32.59
24.67
18.40
14.21
12.05
11.48
11.88
12.69
13.43
13.83
13.68
12.85
11.23
8.80
5.57
1.57
-3.28
-9.16
-16.33
-24.76
-33.85
-42.30
-48.31
-50.10
-46.54
-37.61
-24.39
-8.66
7.60
22.85
36.10
46.79
54.59
59.18
60.27
57.78
52.10
44.16
35.27
26.82
19.93
15.14
12.41
11.21
10.78
10.41
9.64
8.35
6.65
4.81
2.99
1.12
-1.10
-4.17
-8.59
-14.70
-22.50
-31.48
-40.52
-48.07
-52.37
-51.97
-46.16
-35.25
-20.50
-3.80
12.88
27.99
40.58
50.20
56.74
60.17
60.48
57.81
52.52
45.34
37.24
29.30
22.44
17.20
13.65
11.46
10.08
9.02
7.98
6.94
6.02
5.22
4.37
3.06
0.77
-2.95
-8.39
-15.58
-24.23
-33.68
-42.84
-50.21
-54.21
-53.54
-47.67
-37.08
-23.12
-7.56
7.87
21.95
33.96
43.55
50.46
54.41
55.16
52.75
47.66
40.82
33.43
26.61
21.19
17.49
15.39
14.41
14.00
13.65
13.04
12.05
10.67
8.96
6.92
4.47
1.49
-2.14
-6.50
-11.69
-17.79
-24.82
-32.49
-40.10
-46.39
-49.85
-49.14
-43.64
-33.66
-20.43
-5.67
8.91
21.98
32.75
40.83
46.09
48.55
48.35
45.83
41.53
36.11
30.25
24.60
19.60
15.58
12.66
10.84
9.95
9.78
9.97
10.18
10.00
9.11
7.29
4.52
0.98
-2.98
-7.00
-10.89
-14.72
-18.82
-23.70
-29.80
-37.19
-45.38
-53.23
-59.17
-61.57
-59.25
-51.95
-40.38
-26.07
-10.85
3.65
16.27
26.39
33.75
38.22
39.76
38.51
34.90
29.77
24.17
19.08
15.11
12.40
10.70
9.58
8.70
7.96
7.53
7.60
8.18
9.02
9.58
9.31
7.79
4.97
1.15
-3.13
-7.33
-11.07
-14.27
-17.15
-20.10
-23.61
-28.12
-33.80
-40.45
-47.31
-53.19
-56.61
-56.31
-51.61
-42.67
-30.51
-16.69
-2.89
9.48
19.57
27.03
31.86
34.22
34.34
32.48
29.02
24.47
19.39
14.37
9.92
6.40
3.98
2.69
2.43
3.01
4.21
5.78
7.34
8.49
8.80
7.94
5.80
2.55
-1.36
-5.38
-9.04
-12.12
-14.77
-17.37
-20.49
-24.59
-29.87
-36.08
-42.43
-47.73
-50.58
-49.84
-44.93
-36.12
-24.43
-11.36
1.52
12.94
22.11
28.75
32.85
34.62
34.32
32.26
28.80
24.43
19.71
15.19
11.36
8.47
6.57
5.49
5.03
4.98
5.23
5.71
6.31
6.82
6.96
6.43
5.01
2.66
-0.47
-4.13
-8.02
-11.85
-15.43
-18.62
-21.43
-24.02
-26.70
-29.92
-34.07
-39.28
-45.21
-50.93
-55.06
-56.16
-53.25
-46.12
-35.52
-22.86
-9.77
2.39
12.77
20.99
26.98
30.77
32.36
31.87
29.55
25.89
21.52
17.08
13.09
9.89
7.66
6.45
6.20
6.80
8.01
9.55
11.10
12.36
13.13
13.25
12.66
11.32
9.20
6.33
2.80
-1.19
-5.40
-9.56
-13.48
-17.06
-20.28
-23.16
-25.76
-28.20
-30.66
-33.47
-36.96
-41.40
-46.63
-52.01
-56.35
-58.21
-56.36
-50.28
-40.35
-27.77
-14.18
-1.13
10.26
19.44
26.25
30.76
33.06
33.26
31.60
28.53
24.67
20.71
17.22
14.48
12.58
11.40
10.80
10.72
11.18
12.13
13.49
15.00
16.30
17.06
17.03
16.15
14.49
12.23
9.57
6.67
3.66
0.56
-2.67
-6.05
-9.62
-13.30
-16.95
-20.38
-23.40
-25.94
-28.08
-30.04
-32.18
-34.92
-38.59
-43.23
-48.47
-53.41
-56.79
-57.30
-53.99
-46.60
-35.75
-22.72
-9.11
3.59
14.33
22.59
28.29
31.60
32.77
32.06
29.75
26.16
21.75
17.02
12.55
8.83
6.21
4.86
4.74
5.70
7.46
9.71
12.10
14.29
15.92
16.75
16.59
15.42
13.38
10.70
7.70
4.63
1.62
-1.31
-4.24
-7.24
-10.28
-13.21
-15.89
-18.30
-20.63
-23.29
-26.74
-31.25
-36.66
-42.25
-46.89
-49.27
-48.30
-43.46
-34.96
-23.70
-11.02
1.73
13.43
23.40
31.34
37.12
40.70
42.01
41.06
38.02
33.34
27.68
21.78
16.34
11.85
8.65
6.85
6.46
7.29
9.03
11.20
13.28
14.80
15.52
15.41
14.62
13.35
11.70
9.61
6.95
3.60
-0.38
-4.71
-8.95
-12.75
-15.97
-18.76
-21.52
-24.69
-28.62
-33.43
-38.99
-44.87
-50.34
-54.41
-55.96
-54.04
-48.26
-39.06
-27.66
-15.73
-4.78
4.39
11.73
17.77
23.09
27.92
31.95
34.53
35.07
33.36
29.69
24.70
19.26
14.16
10.03
7.20
5.75
5.46
5.83
6.28
6.25
5.47
4.08
2.47
1.15
0.41
0.22
0.26
0.07
-0.67
-2.10
-4.15
-6.71
-9.71
-13.16
-17.09
-21.52
-26.42
-31.81
-37.64
-43.66
-49.28
-53.42
-54.78
-52.20
-45.14
-34.01
-20.12
-5.20
9.04
21.37
31.08
37.93
41.87
42.98
41.46
37.81
32.79
27.29
22.15
17.84
14.39
11.51
8.80
6.04
3.36
1.18
0.03
0.26
1.83
4.26
6.74
8.38
8.51
6.88
3.62
-0.79
-5.74
-10.66
-15.19
-19.20
-22.88
-26.59
-30.81
-35.92
-41.94
-48.34
-54.03
-57.56
-57.57
-53.25
-44.64
-32.62
-18.74
-4.66
8.16
18.80
26.87
32.36
35.48
36.43
35.43
32.71
28.56
23.42
17.83
12.34
7.42
3.42
0.52
-1.19
-1.70
-1.09
0.44
2.44
4.33
5.52
5.57
4.41
2.29
-0.35
-3.10
-5.76
-8.42
-11.38
-15.06
-19.85
-25.91
-33.06
-40.56
-47.21
-51.52
-52.07
-48.03
-39.40
-27.14
-12.85
1.71
14.99
26.02
34.35
39.96
43.03
43.82
42.58
39.60
35.20
29.78
23.84
17.91
12.56
8.29
5.47
4.25
4.53
5.96
7.94
9.80
10.92
10.92
9.68
7.39
4.39
1.00
-2.55
-6.20
-9.99
-14.09
-18.74
-24.21
-30.65
-37.84
-45.00
-50.79
-53.59
-51.98
-45.27
-33.82
-19.03
-2.85
12.71
26.16
36.65
43.97
48.31
50.03
49.50
47.06
43.09
37.98
32.20
26.31
20.87
16.36
13.15
11.35
10.83
11.27
12.23
13.26
13.99
14.15
13.58
12.20
10.05
7.27
4.08
0.66
-2.92
-6.87
-11.57
-17.38
-24.41
-32.15
-39.44
-44.71
-46.36
-43.34
-35.46
-23.55
-9.12
5.97
20.05
31.85
40.74
46.55
49.48
49.93
48.31
45.06
40.57
35.25
29.52
23.85
18.74
14.65
11.90
10.58
10.55
11.40
12.62
13.71
14.24
13.98
12.90
11.11
8.79
6.10
3.16
-0.04
-3.60
-7.76
-12.82
-18.98
-26.11
-33.57
-40.14
-44.31
-44.72
-40.60
-32.14
-20.43
-7.10
6.16
18.02
27.72
34.99
39.83
42.37
42.65
40.82
37.06
31.81
25.68
19.43
13.75
9.20
6.05
4.33
3.82
4.24
5.20
6.30
7.16
7.46
7.03
5.85
4.05
1.80
-0.73
-3.47
-6.47
-9.90
-14.03
-19.11
-25.17
-31.87
-38.31
-43.17
-45.07
-42.96
-36.59
-26.64
-14.51
-1.91
9.64
19.16
26.22
30.88
33.38
33.99
32.90
30.26
26.30
21.40
16.10
11.04
6.82
3.89
2.38
2.14
2.80
3.89
4.97
5.72
5.97
5.67
4.83
3.48
1.66
-0.65
-3.47
-6.84
-10.85
-15.60
-21.14
-27.32
-33.63
-39.12
-42.56
-42.73
-38.87
-30.98
-19.89
-7.09
5.75
17.16
26.19
32.47
36.05
37.19
36.24
33.54
29.48
24.53
19.25
14.17
9.73
6.23
3.82
2.50
2.19
2.72
3.77
4.97
5.85
6.03
5.28
3.59
1.19
-1.58
-4.39
-7.07
-9.62
-12.29
-15.50
-19.71
-25.15
-31.66
-38.48
-44.32
-47.67
-47.20
-42.31
-33.27
-21.25
-7.94
4.96
16.14
24.83
30.86
34.34
35.55
34.79
32.41
28.77
24.34
19.57
14.91
10.70
7.21
4.61
3.00
2.41
2.74
3.75
5.06
6.19
6.68
6.26
4.86
2.70
0.09
-2.70
-5.57
-8.61
-12.04
-16.09
-20.90
-26.46
-32.55
-38.63
-43.80
-46.93
-46.91
-43.08
-35.61
-25.50
-14.27
-3.46
5.92
13.64
19.97
25.33
29.88
33.34
35.17
34.87
32.29
27.71
21.80
15.43
9.45
4.56
1.26
-0.18
0.24
2.29
5.43
8.83
11.49
12.46
11.12
7.49
2.24
-3.46
-8.45
-11.95
-13.89
-14.78
-15.53
-16.97
-19.75
-24.09
-29.89
-36.60
-43.17
-48.15
-49.91
-47.17
-39.49
-27.63
-13.34
1.24
14.25
24.68
32.36
37.66
40.96
42.43
41.92
39.29
34.70
28.71
22.24
16.21
11.30
7.80
5.61
4.43
3.92
3.85
4.03
4.33
4.58
4.60
4.16
3.11
1.35
-1.07
-3.98
-7.09
-10.07
-12.61
-14.65
-16.41
-18.42
-21.36
-25.80
-31.85
-38.94
-45.88
-51.07
-53.01
-50.76
-44.22
-34.13
-21.82
-8.75
3.74
14.71
23.63
30.21
34.39
36.18
35.68
33.10
28.79
23.29
17.29
11.62
7.06
4.23
3.41
4.52
7.08
10.39
13.60
15.92
16.79
15.93
13.45
9.79
5.61
1.50
-2.09
-5.03
-7.48
-9.78
-12.38
-15.76
-20.36
-26.36
-33.55
-41.04
-47.39
-50.85
-49.97
-44.12
-33.82
-20.54
-6.21
7.43
19.22
28.66
35.69
40.37
42.71
42.70
40.53
36.65
31.76
26.63
21.90
17.94
14.82
12.50
10.91
10.03
9.89
10.47
11.56
12.75
13.49
13.22
11.60
8.65
4.73
0.40
-3.81
-7.57
-10.90
-14.11
-17.63
-21.95
-27.39
-33.98
-41.29
-48.36
-53.79
-56.05
-53.96
-47.16
-36.36
-23.08
-9.17
3.78
14.84
23.73
30.54
35.40
38.25
38.96
37.51
34.25
29.81
25.01
20.55
16.86
14.01
11.96
10.58
9.90
10.00
10.91
12.46
14.24
15.68
16.18
15.36
13.17
9.86
5.90
1.78
-2.12
-5.66
-8.94
-12.30
-16.18
-21.04
-27.07
-34.03
-41.11
-46.97
-50.09
-49.18
-43.68
-33.96
-21.24
-7.19
6.51
18.56
28.25
35.34
39.92
42.15
42.25
40.46
37.12
32.71
27.80
22.97
18.67
15.16
12.54
10.79
9.91
9.86
10.58
11.89
13.42
14.70
15.23
14.66
12.86
9.94
6.19
2.00
-2.26
-6.26
-9.93
-13.42
-17.20
-21.86
-27.83
-35.03
-42.67
-49.33
-53.33
-53.24
-48.41
-39.19
-26.80
-12.94
0.74
12.97
23.03
30.62
35.73
38.42
38.84
37.24
34.00
29.65
24.73
19.79
15.22
11.29
8.18
5.95
4.66
4.29
4.77
5.89
7.33
8.66
9.44
9.33
8.14
5.94
2.99
-0.34
-3.68
-6.85
-9.89
-13.10
-16.92
-21.73
-27.64
-34.26
-40.67
-45.54
-47.47
-45.43
-39.10
-29.04
-16.54
-3.20
9.45
20.33
28.92
35.13
39.06
40.81
40.42
37.97
33.70
28.16
22.09
16.34
11.57
8.15
6.08
5.11
4.93
5.30
6.08
7.19
8.49
9.65
10.20
9.66
7.72
4.40
0.09
-4.59
-9.03
-12.83
-16.02
-18.96
-22.29
-26.64
-32.31
-39.09
-46.13
-52.08
-55.44
-54.93
-49.94
-40.70
-28.26
-14.16
-0.04
12.73
23.25
31.09
36.22
38.78
39.01
37.20
33.72
29.02
23.69
18.31
13.44
9.43
6.42
4.32
3.01
2.34
2.29
2.86
4.00
5.49
6.91
7.72
7.42
5.76
2.78
-1.10
-5.34
-9.41
-13.07
-16.42
-19.87
-24.00
-29.24
-35.67
-42.72
-49.28
-53.82
-54.87
-51.50
-43.62
-32.05
-18.30
-4.12
8.97
19.93
28.31
34.08
37.43
38.60
37.83
35.32
31.37
26.40
20.92
15.52
10.75
6.95
4.29
2.74
2.15
2.36
3.20
4.45
5.75
6.65
6.71
5.61
3.35
0.19
-3.39
-6.97
-10.36
-13.61
-17.09
-21.22
-26.40
-32.75
-39.94
-47.14
-53.03
-56.10
-55.06
-49.32
-39.26
-26.19
-11.94
1.69
13.44
22.71
29.50
34.04
36.53
37.03
35.46
31.94
26.78
20.64
14.32
8.63
4.21
1.33
-0.02
-0.17
0.47
1.44
2.43
3.21
3.60
3.44
2.60
1.06
-1.08
-3.58
-6.21
-8.86
-11.69
-15.08
-19.46
-25.04
-31.57
-38.22
-43.70
-46.62
-45.85
-40.90
-32.09
-20.38
-7.15
6.16
18.34
28.53
36.22
41.21
43.50
43.29
40.93
36.90
31.73
25.97
20.17
14.86
10.53
7.52
5.97
5.80
6.69
8.19
9.81
11.08
11.69
11.41
10.21
8.17
5.51
2.46
-0.81
-4.26
-8.03
-12.35
-17.51
-23.63
-30.54
-37.58
-43.62
-47.24
-47.13
-42.50
-33.42
-20.88
-6.51
7.90
20.88
31.48
39.33
44.45
47.01
47.23
45.35
41.71
36.75
31.06
25.24
19.88
15.45
12.26
10.43
9.89
10.37
11.49
12.77
13.74
14.01
13.34
11.64
9.02
5.73
2.16
-1.37
-4.67
-7.78
-11.02
-14.89
-19.84
-26.02
-33.01
-39.77
-44.80
-46.57
-43.99
-36.84
-25.90
-12.65
1.08
13.73
24.23
32.13
37.41
40.28
40.98
39.74
36.84
32.65
27.66
22.45
17.55
13.42
10.32
8.34
7.42
7.44
8.18
9.38
10.71
11.77
12.15
11.59
9.96
7.35
4.01
0.29
-3.52
-7.23
-10.83
-14.52
-18.67
-23.63
-29.53
-35.98
-42.02
-46.22
-47.12
-43.81
-36.25
-25.37
-12.76
-0.13
11.16
20.30
27.04
31.43
33.61
33.76
32.11
28.99
24.88
20.32
15.83
11.78
8.49
6.11
4.77
4.45
5.02
6.20
7.57
8.71
9.28
9.08
8.06
6.28
3.90
1.12
-1.84
-4.83
-7.80
-10.83
-14.16
-18.12
-23.00
-28.79
-35.01
-40.65
-44.38
-44.89
-41.39
-33.92
-23.42
-11.40
0.54
11.12
19.61
25.82
29.82
31.79
31.89
30.30
27.25
23.14
18.49
13.86
9.77
6.55
4.37
3.18
2.88
3.29
4.29
5.70
7.25
8.57
9.18
8.68
6.89
3.94
0.26
-3.60
-7.14
-10.14
-12.64
-15.02
-17.77
-21.35
-25.98
-31.43
-36.94
-41.34
-43.36
-42.01
-36.95
-28.60
-18.03
-6.63
4.32
13.89
21.61
27.32
30.99
32.65
32.34
30.22
26.69
22.36
17.94
14.08
11.18
9.39
8.59
8.53
8.95
9.64
10.46
11.32
12.14
12.77
12.99
12.58
11.31
9.10
6.05
2.43
-1.42
-5.19
-8.71
-12.00
-15.19
-18.52
-22.18
-26.29
-30.85
-35.57
-39.90
-42.99
-43.89
-41.83
-36.49
-28.21
-17.89
-6.79
3.86
13.15
20.57
26.04
29.64
31.55
31.87
30.67
28.10
24.48
20.31
16.26
12.91
10.65
9.51
9.23
9.37
9.58
9.69
9.75
9.87
10.11
10.34
10.32
9.74
8.39
6.28
3.61
0.74
-1.99
-4.36
-6.33
-8.09
-9.96
-12.36
-15.66
-20.09
-25.50
-31.33
-36.56
-39.91
-40.23
-36.85
-29.90
-20.24
-9.23
1.70
11.40
19.21
24.90
28.52
30.27
30.36
29.03
26.50
23.04
19.00
14.81
10.96
7.92
6.02
5.33
5.65
6.57
7.66
8.64
9.41
9.98
10.40
10.54
10.18
9.03
6.93
3.92
0.35
-3.32
-6.63
-9.26
-11.22
-12.73
-14.25
-16.28
-19.22
-23.19
-27.91
-32.63
-36.28
-37.70
-36.00
-30.89
-22.79
-12.83
-2.47
6.82
13.97
18.56
20.78
21.28
20.88
20.21
19.57
18.89
17.92
16.44
14.46
12.24
10.12
8.45
7.36
6.81
6.62
6.64
6.72
6.80
6.80
6.65
6.28
5.59
4.54
3.10
1.32
-0.74
-2.91
-5.07
-7.05
-8.82
-10.48
-12.23
-14.36
-17.14
-20.68
-24.89
-29.38
-33.51
-36.40
-37.18
-35.18
-30.25
-22.80
-13.79
-4.47
4.02
10.87
15.78
18.91
20.61
21.25
21.07
20.10
18.31
15.67
12.35
8.71
5.28
2.65
1.21
1.09
2.03
3.54
5.05
6.16
6.71
6.83
6.73
6.54
6.21
5.48
4.12
2.02
-0.70
-3.72
-6.68
-9.32
-11.61
-13.65
-15.65
-17.79
-20.24
-23.12
-26.52
-30.41
-34.46
-37.98
-39.99
-39.54
-36.10
-29.78
-21.36
-12.00
-2.86
5.25
11.97
17.19
20.91
23.09
23.59
22.40
19.70
15.94
11.74
7.70
4.32
1.87
0.43
-0.12
0.04
0.60
1.28
1.81
2.04
1.97
1.65
1.15
0.43
-0.65
-2.31
-4.67
-7.70
-11.16
-14.69
-18.05
-21.14
-24.13
-27.30
-30.99
-35.45
-40.77
-46.86
-53.34
-59.50
-64.29
-66.51
-65.18
-59.82
-50.75
-39.05
-26.25
-13.93
-3.29
4.99
10.72
14.05
15.26
14.70
12.76
9.84
6.40
2.84
-0.47
-3.32
-5.61
-7.29
-8.36
-8.78
-8.48
-7.38
-5.45
-2.79
0.30
3.34
5.79
7.11
7.05
5.64
3.25
0.33
-2.71
-5.72
-8.81
-12.31
-16.57
-21.82
-28.06
-34.92
-41.77
-47.68
-51.62
-52.66
-50.18
-44.05
-34.71
-23.13
-10.55
1.77
12.80
21.82
28.44
32.55
34.22
33.68
31.30
27.60
23.14
18.49
14.11
10.33
7.33
5.23
4.13
4.12
5.16
7.03
9.26
11.25
12.38
12.28
10.83
8.25
4.91
1.21
-2.59
-6.39
-10.30
-14.63
-19.75
-26.00
-33.48
-41.82
-50.04
-56.66
-59.96
-58.56
-51.84
-40.22
-25.07
-8.30
8.13
22.65
34.38
42.99
48.61
51.52
52.03
50.45
47.15
42.64
37.52
32.43
27.89
24.18
21.37
19.39
18.12
17.51
17.52
18.00
18.68
19.11
18.74
17.16
14.17
9.92
4.79
-0.71
-6.17
-11.44
-16.71
-22.44
-29.11
-37.03
-45.96
-55.04
-62.85
-67.68
-67.99
-62.87
-52.32
-37.30
-19.55
-1.11
16.08
30.64
41.85
49.56
54.04
55.71
55.00
52.36
48.33
43.50
38.55
34.08
30.49
27.95
26.40
25.68
25.55
25.81
26.22
26.48
26.30
25.36
23.44
20.42
16.35
11.40
5.84
-0.11
-6.33
-12.91
-20.11
-28.18
-37.14
-46.61
-55.67
-63.05
-67.35
-67.41
-62.64
-53.16
-39.84
-24.11
-7.67
7.80
20.96
30.92
37.33
40.27
40.15
37.58
33.25
27.92
22.30
17.02
12.53
9.10
6.83
5.74
5.77
6.78
8.48
10.39
11.85
12.21
11.01
8.16
3.89
-1.26
-6.78
-12.28
-17.70
-23.17
-29.02
-35.57
-43.06
-51.52
-60.59
-69.40
-76.51
-80.13
-78.59
-70.90
-57.16
-38.63
-17.33
4.53
25.11
43.20
58.21
69.93
78.30
83.34
85.21
84.33
81.32
76.99
72.08
67.20
62.74
58.95
55.97
53.91
52.71
52.29
52.32
52.38
51.94
50.56
47.98
44.21
39.54
34.41
29.19
24.17
19.36
14.57
9.51
3.80
-2.79
-10.22
-18.01
-25.20
-30.46
-32.47
-30.31
-23.90
-14.05
-2.24
9.82
20.70
29.49
35.81
39.64
41.11
40.40
37.77
33.60
28.45
22.98
17.85
13.57
10.45
8.62
8.00
8.38
9.47
10.92
12.31
13.27
13.48
12.80
11.22
8.91
6.13
3.15
0.12
-2.95
-6.16
-9.72
-13.81
-18.50
-23.63
-28.70
-32.93
-35.31
-34.92
-31.24
-24.33
-14.93
-4.27
6.29
15.58
22.88
27.89
30.68
31.47
30.55
28.27
24.97
21.09
17.05
13.26
10.03
7.56
5.91
5.10
5.07
5.67
6.71
7.87
8.77
9.06
8.48
6.92
4.49
1.41
-2.01
-5.50
-8.90
-12.24
-15.72
-19.67
-24.38
-29.88
-35.76
-41.12
-44.75
-45.49
-42.62
-36.14
-26.77
-15.76
-4.50
5.85
14.45
20.88
25.07
27.11
27.27
25.84
23.19
19.74
15.93
12.21
9.00
6.61
5.19
4.70
5.00
5.84
7.02
8.32
9.53
10.38
10.60
9.95
8.32
5.83
2.74
-0.56
-3.76
-6.73
-9.58
-12.69
-16.52
-21.43
-27.43
-34.01
-40.13
-44.44
-45.65
-43.02
-36.56
-27.07
-15.89
-4.48
5.95
14.64
21.28
25.87
28.52
29.36
28.54
26.29
23.00
19.16
15.40
12.23
9.99
8.73
8.29
8.35
8.68
9.12
9.68
10.41
11.26
12.00
12.24
11.53
9.56
6.35
2.22
-2.25
-6.47
-10.06
-13.01
-15.61
-18.34
-21.66
-25.89
-31.04
-36.81
-42.45
-46.96
-49.18
-48.11
-43.29
-35.00
-24.20
-12.30
-0.72
9.40
17.46
23.25
26.81
28.30
27.88
25.85
22.61
18.73
14.87
11.58
9.25
8.02
7.76
8.19
8.98
9.87
10.74
11.57
12.42
13.26
13.94
14.13
13.48
11.68
8.65
4.63
0.10
-4.40
-8.39
-11.69
-14.43
-16.96
-19.70
-22.97
-26.93
-31.53
-36.54
-41.49
-45.67
-48.15
-48.00
-44.56
-37.69
-27.91
-16.21
-3.75
8.47
19.78
29.75
37.99
43.98
47.16
47.21
44.37
39.52
34.01
29.25
26.21
25.17
25.73
27.04
28.24
28.70
28.22
26.92
25.10
23.02
20.79
18.30
15.28
11.44
6.57
0.57
-6.44
-14.20
-22.27
-30.09
-37.06
-42.72
-46.91
-49.87
-52.22
-54.64
-57.55
-60.80
-63.61
-64.82
-63.32
-58.47
-50.29
-39.50
-27.16
-14.45
-2.39
8.25
16.95
23.43
27.59
29.55
29.58
28.11
25.61
22.55
19.30
16.19
13.41
11.07
9.17
7.66
6.46
5.55
4.94
4.65
4.59
4.52
4.00
2.56
-0.19
-4.35
-9.74
-15.95
-22.47
-28.89
-34.99
-40.71
-46.22
-51.74
-57.50
-63.65
-70.06
-76.25
-81.36
-84.30
-84.01
-79.75
-71.37
-59.36
-44.76
-28.85
-12.99
1.74
14.58
25.17
33.44
39.48
43.44
45.40
45.48
43.84
40.80
36.90
32.76
29.00
26.02
23.94
22.57
21.60
20.69
19.66
18.44
17.11
15.83
14.74
13.96
13.57
13.63
14.19
15.31
17.01
19.28
21.96
24.76
27.19
28.66
28.58
26.58
22.64
17.25
11.38
6.37
3.60
4.08
8.11
15.14
23.94
32.94
40.71
46.31
49.30
49.62
47.47
43.20
37.35
30.72
24.33
19.13
15.73
14.11
13.72
13.71
13.36
12.30
10.62
8.79
7.33
6.68
6.95
7.91
9.00
9.58
9.15
7.62
5.41
3.24
1.81
1.39
1.66
1.81
0.87
-1.86
-6.48
-12.54
-19.17
-25.33
-30.06
-32.68
-32.80
-30.54
-26.61
-22.33
-19.40
-19.34
-22.78
-28.97
-35.97
-41.39
-43.63
-42.60
-39.85
-37.66
-37.83
-40.74
-45.19
-49.12
-50.60
-48.64
-43.40
-35.80
-26.99
-17.98
-9.55
-2.32
3.24
6.87
8.64
8.99
8.68
8.57
9.34
11.18
13.67
15.75
16.06
13.41
7.39
-1.27
-10.72
-18.52
-22.41
-21.10
-14.69
-4.53
7.30
18.72
28.14
34.80
38.62
40.06
39.79
38.49
36.78
35.11
33.72
32.69
32.01
31.64
31.59
31.87
32.44
33.14
33.70
33.84
33.37
32.26
30.67
28.79
26.78
24.67
22.42
19.90
16.98
13.54
9.45
4.61
-0.98
-7.12
-13.33
-18.86
-22.84
-24.50
-23.40
-19.59
-13.61
-6.32
1.34
8.52
14.69
19.54
23.02
25.23
26.35
26.61
26.18
25.23
23.76
21.72
19.01
15.56
11.46
6.91
2.28
-1.99
-5.48
-7.84
-8.95
-8.87
-7.89
-6.38
-4.80
-3.49
-2.70
-2.62
-3.37
-5.14
-8.07
-12.18
-17.21
-22.54
-27.20
-30.14
-30.43
-27.65
-21.99
-14.21
-5.48
3.06
10.49
16.32
20.45
23.00
24.18
24.09
22.79
20.34
16.86
12.71
8.30
4.07
0.35
-2.74
-5.26
-7.39
-9.31
-11.12
-12.83
-14.44
-15.91
-17.23
-18.46
-19.72
-21.16
-23.03
-25.55
-28.86
-32.84
-37.06
-40.72
-42.86
-42.56
-39.28
-33.05
-24.44
-14.49
-4.32
5.09
13.16
19.63
24.46
27.67
29.17
28.87
26.83
23.36
19.07
14.66
10.75
7.61
5.15
3.00
0.78
-1.70
-4.29
-6.65
-8.43
-9.45
-9.91
-10.20
-10.81
-12.12
-14.33
-17.45
-21.37
-25.80
-30.24
-33.93
-35.90
-35.23
-31.44
-24.69
-15.77
-5.84
3.91
12.60
19.74
25.15
28.81
30.76
31.05
29.81
27.32
23.95
20.16
16.37
12.81
9.59
6.64
3.80
0.99
-1.80
-4.43
-6.67
-8.35
-9.46
-10.13
-10.70
-11.54
-13.05
-15.49
-18.93
-23.15
-27.59
-31.37
-33.51
-33.18
-29.94
-23.96
-15.90
-6.74
2.50
10.98
18.09
23.51
27.09
28.80
28.74
27.15
24.39
20.91
17.14
13.43
9.99
6.91
4.15
1.63
-0.72
-2.94
-5.03
-6.95
-8.67
-10.15
-11.38
-12.41
-13.42
-14.68
-16.50
-19.17
-22.68
-26.68
-30.44
-32.99
-33.40
-31.10
-26.08
-18.91
-10.53
-1.97
5.92
12.65
18.00
21.92
24.39
25.40
24.99
23.34
20.77
17.65
14.33
11.02
7.81
4.68
1.61
-1.39
-4.30
-7.02
-9.38
-11.17
-12.19
-12.41
-12.02
-11.46
-11.26
-11.98
-13.93
-17.13
-21.25
-25.65
-29.46
-31.77
-31.82
-29.17
-23.93
-16.63
-8.20
0.33
8.13
14.62
19.59
23.00
24.90
25.35
24.44
22.35
19.38
15.98
12.53
9.37
6.57
4.06
1.67
-0.76
-3.24
-5.66
-7.83
-9.56
-10.74
-11.42
-11.75
-11.98
-12.42
-13.38
-15.09
-17.69
-21.09
-24.93
-28.58
-31.23
-32.04
-30.39
-26.04
-19.32
-11.00
-2.13
6.27
13.41
18.88
22.59
24.66
25.24
24.44
22.41
19.35
15.64
11.78
8.26
5.42
3.30
1.67
0.17
-1.48
-3.37
-5.34
-7.09
-8.40
-9.20
-9.66
-10.06
-10.69
-11.75
-13.34
-15.47
-18.14
-21.19
-24.31
-26.89
-28.17
-27.39
-24.15
-18.53
-11.19
-3.16
4.57
11.21
16.40
20.08
22.32
23.19
22.71
20.97
18.20
14.79
11.19
7.77
4.73
2.07
-0.32
-2.55
-4.69
-6.69
-8.43
-9.76
-10.55
-10.79
-10.56
-10.12
-9.85
-10.13
-11.28
-13.47
-16.64
-20.43
-24.19
-27.10
-28.32
-27.22
-23.60
-17.74
-10.42
-2.61
4.81
11.21
16.27
19.95
22.24
23.11
22.55
20.65
17.63
13.88
9.84
5.84
2.10
-1.35
-4.48
-7.29
-9.68
-11.54
-12.76
-13.32
-13.32
-12.98
-12.61
-12.51
-12.98
-14.12
-15.81
-17.72
-19.36
-20.17
-19.61
-17.33
-13.30
-7.93
-2.12
3.01
6.54
8.31
9.07
10.17
12.78
17.08
21.90
25.04
24.22
18.08
6.72
-8.57
-25.85
-43.22
-59.16
-72.49
-82.48
-88.99
-92.90
-96.05
-100.79
-108.98
-121.10
-135.78
-150.28
-161.55
-167.46
-167.44
-162.55
-154.77
-146.11
-137.89
-130.43
-123.22
-115.43
-106.42
-95.96
-83.91
-69.78
-52.41
-30.42
-3.18
28.13
60.22
88.63
109.47
121.32
125.88
127.43
130.84
139.59
154.61
174.42
196.00
215.97
231.20
239.19
238.27
227.88
208.89
183.69
155.69
128.53
105.00
86.42
72.43
61.49
51.60
41.12
29.31
16.39
3.33
-8.57
-18.15
-24.68
-27.99
-28.26
-25.89
-21.30
-15.10
-8.13
-1.52
3.60
6.43
6.79
5.14
2.35
-0.73
-3.58
-6.10
-8.52
-11.09
-13.91
-16.83
-19.52
-21.73
-23.32
-24.41
-25.19
-25.84
-26.46
-27.11
-27.90
-29.03
-30.75
-33.23
-36.40
-39.83
-42.76
-44.31
-43.64
-40.26
-34.16
-25.87
-16.24
-6.31
3.01
11.07
17.51
22.18
25.01
25.96
25.02
22.34
18.31
13.54
8.73
4.48
1.07
-1.53
-3.59
-5.43
-7.20
-8.83
-10.12
-10.88
-11.12
-11.07
-11.14
-11.82
-13.47
-16.26
-20.09
-24.53
-28.88
-32.22
-33.59
-32.19
-27.70
-20.33
-10.86
-0.38
9.99
19.34
27.03
32.69
36.10
37.23
36.17
33.29
29.13
24.31
19.38
14.67
10.31
6.24
2.35
-1.43
-4.99
-8.15
-10.65
-12.28
-13.03
-13.09
-12.93
-13.19
-14.55
-17.51
-22.19
-28.13
-34.37
-39.60
-42.48
-42.02
-37.85
-30.31
-20.25
-8.89
2.55
12.92
21.28
27.00
29.72
29.50
26.79
22.30
16.89
11.34
6.22
1.79
-1.90
-5.00
-7.70
-10.07
-12.02
-13.40
-14.04
-13.94
-13.38
-12.87
-13.03
-14.45
-17.48
-22.15
-28.09
-34.46
-40.05
-43.46
-43.46
-39.37
-31.29
-20.13
-7.33
5.52
17.10
26.52
33.31
37.33
38.62
37.36
33.87
28.62
22.25
15.46
8.94
3.22
-1.37
-4.73
-6.93
-8.17
-8.70
-8.75
-8.56
-8.36
-8.51
-9.46
-11.70
-15.59
-21.18
-28.01
-35.11
-41.08
-44.48
-44.15
-39.56
-30.88
-19.00
-5.21
9.05
22.46
33.96
42.80
48.57
51.09
50.52
47.26
42.03
35.74
29.35
23.63
19.08
15.83
13.77
12.68
12.33
12.60
13.33
14.24
14.86
14.53
12.54
8.36
1.84
-6.56
-15.80
-24.33
-30.41
-32.55
-29.86
-22.33
-10.73
3.58
19.04
34.21
47.96
59.47
68.18
73.67
75.74
74.47
70.34
64.18
57.05
49.98
43.74
38.73
34.93
32.12
30.03
28.44
27.24
26.39
25.75
25.04
23.86
21.74
18.29
13.27
6.74
-0.84
-8.64
-15.47
-19.98
-20.95
-17.71
-10.37
0.10
12.13
24.03
34.45
42.62
48.28
51.46
52.26
50.74
47.03
41.47
34.72
27.67
21.23
16.13
12.71
10.88
10.22
10.14
10.06
9.60
8.60
7.13
5.40
3.54
1.59
-0.59
-3.21
-6.51
-10.69
-15.82
-21.76
-28.03
-33.74
-37.69
-38.65
-35.75
-28.78
-18.41
-5.93
7.04
18.98
28.77
35.77
39.76
40.87
39.45
36.06
31.36
26.03
20.69
15.79
11.65
8.46
6.31
5.19
5.00
5.54
6.51
7.58
8.37
8.54
7.84
6.19
3.70
0.66
-2.58
-5.72
-8.62
-11.33
-14.04
-17.05
-20.62
-24.85
-29.51
-33.95
-37.18
-38.00
-35.51
-29.38
-20.16
-9.11
2.18
12.31
20.39
26.10
29.52
30.84
30.24
27.88
24.05
19.24
14.14
9.45
5.74
3.28
2.06
1.86
2.41
3.43
4.70
6.04
7.21
7.92
7.90
6.90
4.87
1.95
-1.52
-5.09
-8.36
-11.11
-13.35
-15.37
-17.60
-20.44
-24.05
-28.23
-32.32
-35.32
-36.19
-34.07
-28.68
-20.36
-10.09
0.83
11.09
19.66
25.96
29.82
31.32
30.69
28.24
24.37
19.64
14.75
10.43
7.24
5.41
4.81
5.02
5.49
5.75
5.59
5.08
4.45
3.93
3.63
3.39
2.85
1.64
-0.46
-3.36
-6.73
-10.09
-13.05
-15.48
-17.45
-19.17
-20.96
-23.05
-25.70
-29.02
-32.95
-37.07
-40.59
-42.47
-41.71
-37.73
-30.60
-21.08
-10.46
-0.11
8.81
15.61
20.08
22.40
22.94
22.07
20.09
17.24
13.78
10.06
6.55
3.72
1.92
1.25
1.51
2.36
3.36
4.19
4.66
4.70
4.34
3.66
2.74
1.64
0.44
-0.85
-2.25
-3.84
-5.69
-7.83
-10.20
-12.66
-15.03
-17.17
-19.01
-20.66
-22.31
-24.26
-26.72
-29.67
-32.71
-35.13
-36.03
-34.60
-30.43
-23.66
-15.00
-5.54
3.54
11.27
17.08
20.79
22.54
22.61
21.31
18.92
15.78
12.31
8.97
6.21
4.31
3.33
3.10
3.32
3.75
4.18
4.57
4.89
5.11
5.14
4.89
4.29
3.37
2.22
0.96
-0.31
-1.59
-2.91
-4.36
-6.01
-7.91
-9.97
-12.06
-14.03
-15.78
-17.28
-18.68
-20.17
-21.95
-24.15
-26.72
-29.38
-31.63
-32.84
-32.34
-29.67
-24.70
-17.76
-9.60
-1.22
6.40
12.47
16.62
18.84
19.42
18.72
17.11
14.86
12.21
9.41
6.76
4.56
3.00
2.17
1.95
2.12
2.51
3.02
3.65
4.44
5.33
6.10
6.44
6.09
4.93
3.12
0.98
-1.13
-2.95
-4.44
-5.76
-7.14
-8.75
-10.61
-12.59
-14.44
-15.92
-16.93
-17.54
-18.02
-18.76
-20.13
-22.33
-25.20
-28.17
-30.33
-30.68
-28.46
-23.50
-16.30
-7.90
0.44
7.65
13.10
16.61
18.36
18.65
17.73
15.82
13.13
9.95
6.70
3.80
1.59
0.23
-0.29
-0.15
0.42
1.22
2.10
2.92
3.58
4.01
4.10
3.80
3.11
2.11
0.90
-0.38
-1.67
-2.95
-4.29
-5.79
-7.48
-9.34
-11.24
-13.05
-14.66
-16.05
-17.34
-18.72
-20.38
-22.43
-24.82
-27.27
-29.28
-30.20
-29.41
-26.45
-21.28
-14.32
-6.36
1.57
8.52
13.80
17.12
18.51
18.26
16.80
14.58
11.99
9.38
7.02
5.08
3.61
2.60
1.99
1.70
1.67
1.89
2.34
2.96
3.62
4.13
4.29
3.99
3.23
2.15
0.93
-0.25
-1.36
-2.45
-3.69
-5.16
-6.88
-8.78
-10.72
-12.60
-14.34
-16.00
-17.63
-19.36
-21.26
-23.42
-25.87
-28.47
-30.87
-32.55
-32.83
-31.07
-26.94
-20.59
-12.63
-4.04
4.12
10.99
16.06
19.25
20.74
20.83
19.77
17.78
15.07
11.92
8.75
5.99
4.03
3.02
2.89
3.37
4.16
5.01
5.83
6.58
7.26
7.84
8.18
8.09
7.45
6.22
4.52
2.54
0.49
-1.53
-3.53
-5.60
-7.83
-10.23
-12.68
-14.99
-17.04
-18.78
-20.35
-21.94
-23.82
-26.17
-29.03
-32.22
-35.32
-37.66
-38.41
-36.89
-32.74
-26.14
-17.78
-8.68
0.09
7.71
13.76
18.10
20.82
21.98
21.67
20.02
17.33
14.12
10.99
8.48
6.86
6.10
5.95
6.15
6.53
7.05
7.69
8.41
9.04
9.43
9.50
9.28
8.83
8.19
7.23
5.78
3.70
0.97
-2.19
-5.45
-8.47
-11.04
-13.13
-14.90
-16.66
-18.78
-21.58
-25.22
-29.53
-33.98
-37.72
-39.77
-39.29
-35.85
-29.61
-21.22
-11.66
-1.93
7.13
14.91
21.04
25.34
27.77
28.40
27.50
25.47
22.78
19.88
17.17
14.90
13.20
12.10
11.56
11.50
11.81
12.41
13.20
14.07
14.83
15.27
15.17
14.42
13.07
11.28
9.26
7.15
4.92
2.46
-0.35
-3.50
-6.85
-10.20
-13.39
-16.36
-19.20
-22.10
-25.29
-29.03
-33.52
-38.68
-44.08
-48.87
-51.91
-52.07
-48.71
-41.83
-32.17
-20.94
-9.47
1.06
9.83
16.29
20.27
21.83
21.31
19.20
16.09
12.47
8.69
4.95
1.34
-2.04
-5.06
-7.56
-9.42
-10.55
-10.97
-10.81
-10.19
-9.29
-8.23
-7.00
-5.46
-3.41
-0.66
2.86
6.99
11.40
15.65
19.33
22.13
23.90
24.59
24.23
22.93
20.79
17.92
14.36
10.02
4.73
-1.62
-8.83
-16.24
-22.70
-26.80
-27.34
-23.73
-16.21
-5.80
6.06
17.85
28.37
36.82
42.83
46.35
47.53
46.69
44.23
40.65
36.43
32.02
27.82
24.15
21.27
19.37
18.56
18.78
19.81
21.33
22.91
24.16
24.79
24.68
23.85
22.41
20.47
18.17
15.56
12.76
9.84
6.82
3.69
0.34
-3.27
-7.16
-11.15
-15.03
-18.60
-21.88
-25.16
-28.91
-33.52
-39.04
-44.89
-49.93
-52.72
-51.97
-47.00
-38.00
-25.99
-12.50
0.88
12.88
22.72
30.08
34.94
37.37
37.54
35.72
32.37
28.09
23.59
19.51
16.31
14.16
13.00
12.59
12.70
13.10
13.65
14.33
15.13
16.00
16.80
17.27
17.05
15.84
13.51
10.15
6.04
1.59
-2.78
-6.78
-10.30
-13.44
-16.51
-19.91
-24.10
-29.30
-35.40
-41.74
-47.20
-50.43
-50.19
-45.81
-37.37
-25.76
-12.39
1.16
13.51
23.72
31.31
36.18
38.48
38.48
36.56
33.17
28.90
24.33
20.04
16.46
13.80
12.09
11.19
10.92
11.06
11.49
12.11
12.86
13.65
14.25
14.36
13.64
11.78
8.75
4.80
0.39
-3.93
-7.79
-11.14
-14.25
-17.58
-21.60
-26.59
-32.54
-39.16
-45.77
-51.44
-54.99
-55.27
-51.50
-43.55
-32.07
-18.35
-4.02
9.45
20.96
29.89
36.03
39.42
40.23
38.77
35.52
31.10
26.23
21.61
17.79
15.11
13.61
13.09
13.24
13.70
14.27
14.86
15.50
16.15
16.63
16.62
15.74
13.70
10.45
6.23
1.47
-3.29
-7.69
-11.59
-15.15
-18.76
-22.91
-28.00
-34.13
-40.89
-47.36
-52.24
-54.13
-52.00
-45.46
-35.00
-21.78
-7.36
6.71
19.17
29.22
36.47
40.80
42.34
41.36
38.33
33.92
28.90
24.08
20.06
17.27
15.79
15.44
15.89
16.72
17.58
18.26
18.72
19.00
19.13
18.98
18.28
16.69
13.98
10.18
5.63
0.91
-3.43
-7.07
-10.08
-12.90
-16.14
-20.36
-25.80
-32.24
-38.93
-44.65
-48.06
-47.94
-43.64
-35.25
-23.61
-10.10
3.72
16.50
27.24
35.40
40.74
43.26
43.11
40.60
36.28
30.92
25.37
20.47
16.79
14.59
13.73
13.84
14.44
15.17
15.85
16.47
17.13
17.82
18.33
18.30
17.27
14.99
11.46
7.04
2.28
-2.23
-6.14
-9.44
-12.40
-15.49
-19.21
-23.89
-29.56
-35.83
-41.89
-46.55
-48.54
-46.76
-40.73
-30.81
-18.12
-4.29
8.98
20.38
29.17
35.18
38.58
39.66
38.68
35.95
31.84
26.91
21.87
17.44
14.18
12.38
11.99
12.66
13.95
15.36
16.54
17.31
17.64
17.58
17.18
16.40
15.11
13.14
10.40
6.93
2.94
-1.27
-5.43
-9.33
-12.91
-16.22
-19.39
-22.58
-26.03
-30.00
-34.62
-39.80
-44.99
-49.17
-51.08
-49.56
-43.99
-34.57
-22.31
-8.77
4.38
15.79
24.65
30.73
34.16
35.30
34.54
32.26
28.85
24.78
20.57
16.79
13.88
12.10
11.44
11.67
12.44
13.44
14.41
15.21
15.77
15.98
15.76
14.98
13.58
11.56
9.00
5.97
2.55
-1.15
-5.00
-8.80
-12.32
-15.45
-18.20
-20.80
-23.60
-26.97
-31.16
-36.10
-41.34
-46.05
-49.18
-49.63
-46.64
-40.06
-30.44
-18.90
-6.83
4.48
14.09
21.48
26.51
29.17
29.63
28.08
24.93
20.74
16.26
12.21
9.15
7.32
6.66
6.88
7.64
8.62
9.64
10.58
11.40
12.02
12.37
12.37
11.89
10.81
9.03
6.47
3.17
-0.69
-4.83
-8.86
-12.50
-15.59
-18.21
-20.67
-23.42
-26.87
-31.18
-36.10
-40.87
-44.36
-45.38
-43.06
-37.13
-28.07
-16.92
-5.07
6.16
15.71
22.94
27.59
29.76
29.73
27.96
24.93
21.19
17.24
13.54
10.47
8.30
7.16
6.98
7.55
8.56
9.68
10.63
11.27
11.57
11.56
11.20
10.39
8.96
6.75
3.78
0.21
-3.63
-7.39
-10.81
-13.82
-16.51
-19.09
-21.82
-24.94
-28.67
-33.12
-38.20
-43.45
-48.04
-50.86
-50.85
-47.34
-40.30
-30.40
-18.83
-6.91
4.19
13.68
21.16
26.49
29.72
30.94
30.31
28.06
24.59
20.42
16.23
12.64
10.11
8.80
8.58
9.03
9.73
10.35
10.78
11.11
11.46
11.82
12.02
11.72
10.59
8.48
5.47
1.86
-1.99
-5.75
-9.27
-12.55
-15.71
-18.95
-22.45
-26.38
-30.81
-35.63
-40.51
-44.84
-47.78
-48.44
-46.11
-40.51
-31.94
-21.25
-9.63
1.68
11.65
19.64
25.38
28.83
30.16
29.55
27.29
23.75
19.51
15.19
11.42
8.69
7.18
6.81
7.22
8.04
8.98
9.90
10.81
11.67
12.35
12.55
11.98
10.41
7.87
4.61
1.01
-2.57
-5.89
-8.89
-11.65
-14.36
-17.32
-20.87
-25.31
-30.64
-36.43
-41.68
-45.01
-45.11
-41.19
-33.34
-22.49
-10.19
1.98
12.75
21.38
27.63
31.53
33.24
32.91
30.77
27.20
22.77
18.21
14.18
11.20
9.43
8.80
8.99
9.61
10.37
11.05
11.57
11.92
12.10
12.10
11.88
11.28
10.10
8.06
5.04
1.09
-3.47
-8.12
-12.34
-15.84
-18.61
-21.00
-23.52
-26.76
-31.08
-36.44
-42.29
-47.60
-51.10
-51.56
-48.21
-41.01
-30.67
-18.40
-5.66
6.27
16.48
24.50
30.18
33.58
34.83
34.17
31.89
28.38
24.20
19.96
16.26
13.55
12.02
11.54
11.79
12.36
12.95
13.45
13.87
14.27
14.60
14.60
13.93
12.29
9.59
6.05
2.08
-1.82
-5.36
-8.47
-11.37
-14.43
-18.05
-22.51
-27.85
-33.82
-39.87
-45.13
-48.52
-49.02
-45.91
-39.06
-29.00
-16.85
-4.07
7.98
18.18
25.93
31.03
33.58
33.88
32.29
29.25
25.31
21.07
17.10
13.88
11.65
10.42
10.02
10.22
10.82
11.71
12.78
13.91
14.88
15.40
15.19
14.05
11.96
9.07
5.65
2.02
-1.56
-4.91
-8.06
-11.26
-14.89
-19.34
-24.80
-31.02
-37.18
-42.05
-44.27
-42.81
-37.31
-28.24
-16.80
-4.48
7.27
17.39
25.27
30.70
33.74
34.60
33.58
31.07
27.52
23.41
19.17
15.14
11.59
8.74
6.71
5.60
5.33
5.70
6.39
7.04
7.32
7.03
6.08
4.50
2.37
-0.19
-3.01
-5.95
-8.97
-12.14
-15.71
-19.92
-24.80
-29.92
-34.39
-36.92
-36.37
-32.13
-24.41
-14.23
-3.07
7.63
16.78
23.84
28.71
31.49
32.31
31.27
28.54
24.47
19.61
14.60
10.06
6.46
4.02
2.79
2.62
3.17
4.01
4.67
4.77
4.13
2.82
1.05
-0.89
-2.83
-4.75
-6.84
-9.35
-12.57
-16.70
-21.77
-27.55
-33.42
-38.46
-41.46
-41.38
-37.57
-30.12
-19.84
-8.10
3.56
13.84
21.91
27.47
30.63
31.67
30.92
28.67
25.23
20.97
16.38
11.98
8.26
5.53
3.91
3.28
3.37
3.86
4.41
4.74
4.63
3.94
2.61
0.73
-1.58
-4.11
-6.76
-9.50
-12.53
-16.15
-20.69
-26.26
-32.57
-38.84
-43.84
-46.22
-44.90
-39.43
-30.18
-18.26
-5.18
7.48
18.46
26.96
32.60
35.45
35.78
34.07
30.85
26.70
22.17
17.77
13.87
10.72
8.40
6.90
6.14
6.01
6.38
7.09
7.84
8.31
8.14
7.10
5.16
2.52
-0.49
-3.59
-6.64
-9.70
-13.06
-17.04
-21.96
-27.86
-34.42
-40.81
-45.82
-48.10
-46.57
-40.76
-31.10
-18.76
-5.37
7.46
18.50
27.03
32.84
36.01
36.79
35.52
32.59
28.51
23.82
19.08
14.83
11.47
9.26
8.24
8.34
9.27
10.66
12.11
13.21
13.66
13.21
11.80
9.43
6.30
2.68
-1.08
-4.67
-8.00
-11.19
-14.62
-18.75
-23.91
-30.07
-36.59
-42.31
-45.77
-45.63
-41.14
-32.43
-20.53
-7.08
6.17
17.75
26.78
32.95
36.34
37.29
36.13
33.29
29.23
24.50
19.72
15.42
11.98
9.59
8.25
7.83
8.17
9.08
10.35
11.68
12.69
12.94
12.09
9.97
6.72
2.76
-1.36
-5.16
-8.47
-11.41
-14.46
-18.16
-22.88
-28.63
-34.89
-40.71
-44.81
-45.96
-43.26
-36.52
-26.31
-13.88
-0.82
11.33
21.47
28.98
33.76
35.96
35.88
33.88
30.43
26.08
21.50
17.33
14.07
11.94
10.89
10.65
10.85
11.19
11.49
11.72
11.88
11.94
11.71
10.87
9.12
6.36
2.75
-1.33
-5.42
-9.20
-12.65
-16.00
-19.70
-24.14
-29.57
-35.87
-42.51
-48.55
-52.70
-53.68
-50.58
-43.22
-32.27
-19.10
-5.38
7.41
18.27
26.77
32.82
36.50
37.82
36.86
33.81
29.21
23.91
18.91
15.10
12.96
12.45
13.08
14.17
15.15
15.75
16.02
16.18
16.34
16.42
16.08
14.93
12.65
9.21
4.91
0.21
-4.40
-8.59
-12.33
-15.83
-19.45
-23.57
-28.46
-34.12
-40.19
-45.88
-50.06
-51.50
-49.23
-42.84
-32.76
-20.08
-6.37
6.82
18.26
27.23
33.41
36.82
37.62
36.09
32.67
27.98
22.82
18.04
14.32
12.00
11.11
11.32
12.20
13.37
14.58
15.73
16.77
17.61
17.99
17.56
15.99
13.14
9.19
4.58
-0.07
-4.24
-7.66
-10.39
-12.79
-15.36
-18.59
-22.79
-28.00
-33.83
-39.50
-43.86
-45.66
-43.88
-38.10
-28.70
-16.81
-3.97
8.28
18.80
26.93
32.47
35.49
36.14
34.63
31.28
26.63
21.45
16.61
12.87
10.66
9.97
10.42
11.47
12.63
13.62
14.37
14.91
15.28
15.37
15.02
14.04
12.27
9.62
6.18
2.14
-2.17
-6.39
-10.22
-13.53
-16.45
-19.32
-22.60
-26.70
-31.80
-37.68
-43.64
-48.59
-51.26
-50.54
-45.88
-37.43
-26.11
-13.33
-0.57
10.94
20.47
27.68
32.51
34.98
35.19
33.32
29.80
25.30
20.64
16.62
13.80
12.35
12.10
12.67
13.61
14.57
15.39
16.05
16.57
16.91
16.95
16.50
15.34
13.31
10.41
6.75
2.61
-1.72
-5.93
-9.86
-13.46
-16.79
-20.00
-23.32
-26.99
-31.23
-36.13
-41.45
-46.57
-50.47
-51.96
-50.01
-44.17
-34.71
-22.65
-9.44
3.41
14.67
23.55
29.75
33.30
34.40
33.39
30.69
26.83
22.47
18.29
14.91
12.75
11.89
12.12
13.03
14.18
15.26
16.10
16.70
17.09
17.24
17.01
16.24
14.74
12.43
9.35
5.72
1.84
-2.00
-5.61
-8.98
-12.20
-15.43
-18.84
-22.55
-26.69
-31.38
-36.60
-42.05
-47.00
-50.32
-50.82
-47.63
-40.60
-30.40
-18.35
-5.99
5.37
14.86
22.13
27.09
29.82
30.41
29.02
25.99
21.90
17.50
13.54
10.53
8.66
7.81
7.67
7.97
8.56
9.41
10.47
11.64
12.64
13.13
12.78
11.37
8.90
5.56
1.73
-2.16
-5.77
-8.95
-11.81
-14.69
-18.03
-22.21
-27.34
-33.17
-39.01
-43.89
-46.66
-46.35
-42.40
-34.90
-24.54
-12.54
-0.31
10.87
20.09
26.87
31.08
32.84
32.43
30.17
26.51
22.00
17.24
12.84
9.34
7.01
5.90
5.81
6.37
7.20
8.00
8.57
8.86
8.90
8.64
7.96
6.62
4.40
1.21
-2.81
-7.27
-11.70
-15.63
-18.91
-21.66
-24.25
-27.16
-30.81
-35.35
-40.58
-45.89
-50.31
-52.71
-52.00
-47.51
-39.27
-28.00
-15.02
-1.81
10.32
20.44
28.08
33.08
35.49
35.53
33.58
30.23
26.21
22.22
18.81
16.20
14.39
13.21
12.50
12.21
12.35
12.94
13.90
15.01
15.92
16.17
15.39
13.36
10.14
6.01
1.47
-2.99
-7.01
-10.48
-13.60
-16.79
-20.52
-25.14
-30.70
-36.81
-42.63
-47.03
-48.78
-46.94
-41.15
-31.79
-19.92
-7.00
5.46
16.24
24.59
30.27
33.38
34.23
33.23
30.81
27.47
23.69
20.00
16.85
14.60
13.39
13.16
13.65
14.54
15.52
16.42
17.16
17.72
17.96
17.65
16.49
14.27
10.97
6.86
2.40
-1.88
-5.65
-8.82
-11.64
-14.58
-18.20
-22.86
-28.56
-34.77
-40.43
-44.21
-44.80
-41.41
-34.01
-23.39
-10.97
1.65
13.07
22.38
29.18
33.47
35.46
35.43
33.69
30.61
26.69
22.52
18.73
15.83
14.11
13.54
13.90
14.82
15.99
17.22
18.42
19.53
20.36
20.59
19.85
17.93
14.91
11.20
7.40
4.01
1.22
-1.10
-3.31
-5.83
-8.97
-12.91
-17.60
-22.80
-27.98
-32.36
-34.93
-34.79
-31.43
-24.91
-15.94
-5.66
4.67
13.95
21.41
26.60
29.43
29.98
28.55
25.58
21.63
17.27
13.05
9.45
6.80
5.28
4.88
5.42
6.63
8.20
9.82
11.25
12.29
12.68
12.23
10.77
8.25
4.83
0.83
-3.30
-7.18
-10.56
-13.47
-16.14
-18.96
-22.31
-26.41
-31.09
-35.80
-39.53
-41.12
-39.60
-34.56
-26.34
-15.94
-4.78
5.81
14.85
21.81
26.55
29.14
29.74
28.55
25.93
22.31
18.29
14.42
11.21
8.99
7.90
7.88
8.67
9.93
11.27
12.39
13.10
13.36
13.13
12.36
10.93
8.71
5.68
2.02
-1.92
-5.75
-9.23
-12.33
-15.26
-18.36
-21.92
-26.06
-30.71
-35.53
-39.94
-43.16
-44.31
-42.65
-37.81
-30.01
-20.06
-9.15
1.45
10.73
18.11
23.42
26.73
28.22
28.06
26.47
23.72
20.24
16.57
13.31
10.94
9.71
9.58
10.25
11.28
12.26
12.93
13.24
13.26
13.07
12.67
11.96
10.73
8.89
6.45
3.58
0.53
-2.50
-5.41
-8.24
-11.03
-13.81
-16.54
-19.18
-21.84
-24.78
-28.25
-32.29
-36.45
-39.77
-41.06
-39.27
-34.03
-25.77
-15.58
-4.87
5.10
13.48
19.93
24.38
26.94
27.76
27.06
25.14
22.46
19.59
17.02
15.15
14.11
13.86
14.21
14.95
15.94
17.00
18.04
18.87
19.31
19.21
18.45
17.05
15.11
12.85
10.41
7.94
5.47
2.94
0.26
-2.65
-5.73
-8.84
-11.72
-14.18
-16.10
-17.62
-19.05
-20.82
-23.30
-26.68
-30.81
-35.15
-38.89
-40.99
-40.57
-37.07
-30.57
-21.76
-11.77
-1.86
6.91
13.87
18.81
21.79
23.02
22.78
21.36
19.08
16.36
13.62
11.24
9.47
8.42
8.04
8.19
8.73
9.48
10.34
11.19
11.94
12.48
12.67
12.38
11.53
10.16
8.45
6.63
4.83
3.06
1.19
-0.99
-3.58
-6.52
-9.58
-12.43
-14.83
-16.67
-18.02
-19.12
-20.33
-21.99
-24.37
-27.53
-31.19
-34.68
-37.06
-37.32
-34.73
-29.13
-21.06
-11.63
-2.17
6.18
12.74
17.31
20.07
21.32
21.28
20.07
17.82
14.75
11.30
8.01
5.41
3.87
3.45
3.96
5.08
6.46
7.88
9.21
10.37
11.29
11.78
11.66
10.77
9.15
7.01
4.65
2.35
0.21
-1.82
-3.95
-6.32
-8.95
-11.68
-14.29
-16.54
-18.39
-19.95
-21.43
-23.13
-25.33
-28.15
-31.49
-34.95
-37.82
-39.20
-38.26
-34.54
-28.14
-19.73
-10.38
-1.26
6.70
12.96
17.35
19.97
21.01
20.71
19.32
17.18
14.69
12.24
10.15
8.61
7.67
7.31
7.46
8.05
9.02
10.27
11.66
13.02
14.14
14.78
14.73
13.83
12.07
9.63
6.83
4.05
1.61
-0.39
-2.07
-3.71
-5.62
-7.97
-10.75
-13.74
-16.66
-19.24
-21.38
-23.16
-24.83
-26.72
-29.16
-32.27
-35.92
-39.64
-42.64
-44.01
-42.94
-38.99
-32.25
-23.40
-13.52
-3.78
4.81
11.64
16.55
19.67
21.28
21.65
20.97
19.44
17.30
14.91
12.70
11.00
9.99
9.61
9.64
9.85
10.13
10.55
11.22
12.19
13.30
14.24
14.62
14.21
13.05
11.36
9.45
7.54
5.67
3.70
1.45
-1.19
-4.18
-7.33
-10.38
-13.13
-15.51
-17.57
-19.48
-21.51
-23.96
-27.06
-30.91
-35.31
-39.71
-43.29
-45.12
-44.40
-40.72
-34.21
-25.51
-15.65
-5.79
3.01
10.09
15.15
18.31
19.84
20.12
19.42
17.96
15.94
13.61
11.29
9.31
7.91
7.19
7.14
7.65
8.55
9.68
10.85
11.93
12.78
13.26
13.30
12.80
11.71
9.97
7.60
4.70
1.48
-1.81
-4.97
-7.91
-10.64
-13.31
-16.05
-19.03
-22.39
-26.23
-30.53
-35.05
-39.24
-42.31
-43.33
-41.59
-36.84
-29.43
-20.20
-10.23
-0.53
8.16
15.39
20.92
24.64
26.50
26.54
24.98
22.20
18.78
15.29
12.26
10.01
8.70
8.29
8.63
9.47
10.57
11.68
12.64
13.37
13.82
13.97
13.73
12.98
11.59
9.48
6.74
3.53
0.06
-3.48
-7.00
-10.51
-14.00
-17.52
-21.13
-24.98
-29.29
-34.16
-39.46
-44.63
-48.70
-50.54
-49.21
-44.32
-36.19
-25.78
-14.33
-3.06
7.10
15.62
22.27
26.97
29.71
30.52
29.55
27.14
23.85
20.31
17.13
14.74
13.28
12.69
12.74
13.19
13.88
14.74
15.76
16.89
18.01
18.87
19.13
18.47
16.62
13.57
9.53
4.94
0.30
-3.94
-7.60
-10.72
-13.57
-16.50
-19.91
-24.09
-29.20
-35.12
-41.32
-46.82
-50.39
-50.77
-47.27
-39.90
-29.53
-17.53
-5.33
5.95
15.70
23.66
29.78
33.94
36.01
35.92
33.86
30.33
26.09
21.99
18.72
16.70
15.98
16.30
17.24
18.38
19.44
20.30
20.95
21.39
21.57
21.28
20.29
18.44
15.71
12.27
8.43
4.51
0.74
-2.80
-6.13
-9.41
-12.82
-16.65
-21.11
-26.35
-32.26
-38.34
-43.69
-47.16
-47.68
-44.60
-37.91
-28.29
-16.87
-4.95
6.36
16.28
24.33
30.29
34.07
35.68
35.25
33.13
29.81
25.96
22.23
19.16
17.11
16.15
16.16
16.89
18.05
19.45
20.97
22.49
23.83
24.71
24.78
23.72
21.42
18.01
13.88
9.54
5.41
1.69
-1.64
-4.86
-8.35
-12.47
-17.47
-23.31
-29.53
-35.25
-39.32
-40.53
-38.05
-31.73
-22.21
-10.74
1.23
12.40
21.92
29.38
34.66
37.81
38.85
37.90
35.23
31.33
26.89
22.73
19.49
17.54
16.89
17.25
18.14
19.11
19.89
20.38
20.67
20.88
21.00
20.87
20.14
18.48
15.69
11.87
7.37
2.70
-1.72
-5.66
-9.15
-12.37
-15.64
-19.26
-23.49
-28.47
-34.10
-39.89
-44.91
-47.92
-47.71
-43.55
-35.50
-24.49
-12.02
0.30
11.21
20.06
26.73
31.40
34.24
35.38
34.83
32.73
29.43
25.50
21.61
18.37
16.18
15.16
15.18
15.93
17.05
18.23
19.23
19.95
20.33
20.31
19.79
18.55
16.40
13.27
9.31
4.89
0.49
-3.49
-6.88
-9.79
-12.54
-15.51
-19.05
-23.32
-28.38
-34.02
-39.77
-44.83
-48.12
-48.60
-45.53
-38.84
-29.16
-17.70
-5.87
5.11
14.44
21.75
26.94
30.07
31.19
30.42
27.99
24.34
20.14
16.10
12.88
10.88
10.12
10.33
11.09
12.01
12.88
13.69
14.51
15.35
16.03
16.23
15.60
13.88
11.09
7.46
3.40
-0.66
-4.42
-7.74
-10.71
-13.56
-16.58
-20.08
-24.24
-29.05
-34.24
-39.23
-43.17
-45.08
-44.07
-39.70
-32.10
-22.01
-10.64
0.67
10.76
18.86
24.68
28.23
29.71
29.35
27.39
24.13
20.02
15.66
11.75
8.93
7.54
7.56
8.62
10.18
11.70
12.89
13.65
14.07
14.22
14.07
13.47
12.25
10.29
7.60
4.34
0.77
-2.84
-6.27
-9.40
-12.25
-14.93
-17.66
-20.70
-24.29
-28.64
-33.77
-39.37
-44.77
-48.92
-50.64
-49.00
-43.60
-34.83
-23.74
-11.74
-0.21
9.84
17.88
23.74
27.52
29.34
29.37
27.85
25.11
21.63
17.97
14.67
12.16
10.70
10.38
11.08
12.53
14.39
16.26
17.82
18.82
19.16
18.86
17.95
16.51
14.59
12.19
9.34
6.08
2.49
-1.30
-5.12
-8.82
-12.28
-15.45
-18.43
-21.35
-24.48
-28.03
-32.17
-36.86
-41.84
-46.58
-50.29
-52.04
-50.96
-46.51
-38.72
-28.28
-16.41
-4.53
6.11
14.72
21.03
25.19
27.52
28.31
27.77
26.07
23.48
20.38
17.30
14.76
13.12
12.56
12.95
14.02
15.43
16.86
18.11
19.04
19.60
19.72
19.34
18.43
16.97
14.98
12.54
9.72
6.57
3.17
-0.44
-4.16
-7.89
-11.52
-14.96
-18.19
-21.27
-24.39
-27.84
-31.85
-36.50
-41.47
-46.01
-49.07
-49.56
-46.71
-40.40
-31.17
-20.10
-8.49
2.45
11.84
19.19
24.40
27.55
28.84
28.47
26.65
23.68
20.01
16.23
12.97
10.77
9.89
10.28
11.61
13.47
15.45
17.31
18.86
19.98
20.54
20.42
19.56
18.00
15.85
13.22
10.20
6.78
2.97
-1.16
-5.41
-9.52
-13.27
-16.54
-19.43
-22.19
-25.14
-28.56
-32.63
-37.23
-41.93
-45.94
-48.22
-47.74
-43.82
-36.40
-26.14
-14.27
-2.22
8.70
17.62
24.18
28.43
30.65
31.11
30.07
27.77
24.53
20.76
17.05
13.98
12.03
11.41
12.08
13.70
15.85
18.09
20.07
21.53
22.29
22.22
21.28
19.56
17.23
14.51
11.58
8.54
5.35
1.93
-1.74
-5.60
-9.45
-13.12
-16.46
-19.53
-22.50
-25.69
-29.41
-33.91
-39.20
-44.90
-50.20
-53.90
-54.75
-51.85
-44.97
-34.79
-22.59
-9.96
1.73
11.62
19.40
25.14
29.01
31.17
31.69
30.64
28.32
25.16
21.77
18.72
16.43
15.07
14.66
15.05
16.11
17.70
19.65
21.72
23.56
24.81
25.14
24.38
22.56
19.93
16.81
13.56
10.37
7.31
4.23
0.95
-2.67
-6.61
-10.70
-14.66
-18.30
-21.58
-24.66
-27.87
-31.54
-35.88
-40.79
-45.83
-50.16
-52.78
-52.69
-49.22
-42.27
-32.41
-20.66
-8.31
3.46
13.75
21.99
27.92
31.51
32.87
32.33
30.33
27.44
24.20
21.06
18.30
16.14
14.72
14.13
14.39
15.42
16.99
18.79
20.50
21.89
22.77
23.02
22.53
21.24
19.20
16.60
13.70
10.74
7.80
4.82
1.64
-1.84
-5.60
-9.43
-13.07
-16.35
-19.23
-21.92
-24.72
-28.00
-32.04
-36.80
-41.91
-46.54
-49.59
-49.96
-46.90
-40.31
-30.79
-19.50
-7.78
3.15
12.53
19.97
25.46
29.08
30.93
31.08
29.67
26.98
23.44
19.60
16.05
13.26
11.49
10.77
10.95
11.80
13.10
14.64
16.24
17.69
18.72
19.10
18.70
17.48
15.60
13.21
10.46
7.43
4.12
0.57
-3.14
-6.87
-10.44
-13.76
-16.84
-19.86
-23.11
-26.90
-31.42
-36.57
-41.90
-46.53
-49.39
-49.45
-46.11
-39.32
-29.68
-18.23
-6.22
5.20
15.13
22.96
28.40
31.43
32.26
31.31
29.02
25.94
22.51
19.15
16.20
13.91
12.43
11.76
11.80
12.33
13.13
14.04
14.95
15.76
16.31
16.41
15.89
14.69
12.87
10.58
7.92
4.90
1.48
-2.36
-6.51
-10.74
-14.76
-18.41
-21.72
-24.94
-28.47
-32.60
-37.45
-42.74
-47.90
-52.00
-54.07
-53.26
-49.10
-41.71
-31.74
-20.21
-8.32
2.86
12.54
20.24
25.79
29.24
30.76
30.59
29.00
26.32
22.92
19.27
15.88
13.24
11.67
11.26
11.84
13.04
14.42
15.63
16.48
16.96
17.17
17.18
16.97
16.41
15.27
13.36
10.60
7.07
3.01
-1.29
-5.60
-9.74
-13.66
-17.40
-21.10
-25.00
-29.38
-34.43
-40.05
-45.77
-50.68
-53.67
-53.72
-50.21
-43.17
-33.24
-21.53
-9.29
2.32
12.41
20.40
26.03
29.31
30.46
29.83
27.89
25.07
21.83
18.53
15.54
13.14
11.54
10.88
11.11
12.03
13.31
14.61
15.63
16.29
16.55
16.42
15.82
14.54
12.40
9.31
5.45
1.20
-2.94
-6.59
-9.67
-12.44
-15.39
-19.07
-23.79
-29.46
-35.54
-41.13
-45.10
-46.45
-44.50
-39.14
-30.82
-20.46
-9.17
1.94
12.00
20.40
26.82
31.10
33.22
33.28
31.51
28.31
24.26
20.04
16.29
13.50
11.87
11.29
11.41
11.88
12.39
12.86
13.34
13.89
14.47
14.79
14.50
13.24
10.88
7.58
3.73
-0.20
-3.85
-7.06
-9.97
-12.85
-16.08
-19.98
-24.74
-30.33
-36.38
-42.23
-46.89
-49.34
-48.67
-44.44
-36.82
-26.54
-14.75
-2.70
8.48
17.97
25.27
30.16
32.69
33.04
31.59
28.78
25.13
21.18
17.46
14.40
12.32
11.31
11.23
11.76
12.54
13.28
13.90
14.42
14.88
15.13
14.86
13.71
11.43
8.06
3.93
-0.44
-4.63
-8.39
-11.77
-15.00
-18.38
-22.21
-26.70
-31.98
-37.93
-44.12
-49.73
-53.63
-54.68
-52.05
-45.56
-35.76
-23.79
-11.08
1.05
11.64
20.15
26.38
30.32
32.06
31.78
29.82
26.71
23.11
19.70
16.97
15.16
14.25
14.02
14.26
14.78
15.53
16.50
17.61
18.68
19.38
19.34
18.22
15.88
12.41
8.12
3.46
-1.14
-5.39
-9.22
-12.80
-16.45
-20.55
-25.48
-31.39
-38.07
-44.89
-50.78
-54.52
-54.99
-51.54
-44.19
-33.64
-21.05
-7.86
4.61
15.27
23.40
28.72
31.29
31.46
29.71
26.64
22.80
18.76
15.00
11.94
9.87
8.92
9.05
10.09
11.75
13.70
15.62
17.16
18.02
18.00
17.02
15.16
12.61
9.62
6.40
3.05
-0.40
-4.01
-7.95
-12.43
-17.70
-23.85
-30.69
-37.48
-43.05
-45.96
-45.01
-39.69
-30.40
-18.38
-5.36
6.99
17.45
25.41
30.75
33.63
34.28
32.97
30.07
26.15
21.90
18.07
15.19
13.45
12.69
12.53
12.63
12.81
13.12
13.65
14.40
15.07
15.18
14.21
11.88
8.28
3.83
-0.89
-5.47
-9.73
-13.85
-18.17
-23.11
-28.90
-35.52
-42.62
-49.46
-54.96
-57.91
-57.21
-52.23
-43.10
-30.68
-16.41
-1.92
11.38
22.50
30.92
36.53
39.39
39.75
37.95
34.50
30.04
25.31
21.01
17.67
15.58
14.75
14.99
15.97
17.36
18.81
20.03
20.70
20.51
19.26
16.84
13.32
8.97
4.16
-0.68
-5.26
-9.50
-13.61
-18.06
-23.39
-29.99
-37.80
-46.08
-53.48
-58.29
-58.96
-54.65
-45.57
-32.88
-18.34
-3.78
9.36
20.24
28.53
34.20
37.35
38.13
36.81
33.88
30.02
25.95
22.27
19.38
17.40
16.27
15.86
16.05
16.70
17.69
18.85
19.92
20.55
20.39
19.08
16.48
12.66
7.92
2.76
-2.31
-6.92
-11.03
-14.92
-19.12
-24.24
-30.64
-38.22
-46.24
-53.38
-58.05
-58.84
-54.93
-46.41
-34.25
-20.02
-5.43
8.04
19.41
28.16
34.18
37.55
38.48
37.30
34.45
30.54
26.28
22.38
19.37
17.53
16.85
17.06
17.84
18.90
20.06
21.19
22.14
22.66
22.40
21.02
18.32
14.34
9.38
3.95
-1.45
-6.42
-10.82
-14.80
-18.75
-23.16
-28.49
-34.83
-41.84
-48.63
-53.85
-56.03
-54.01
-47.35
-36.49
-22.72
-7.76
6.66
19.24
29.27
36.53
41.10
43.14
42.79
40.28
36.00
30.68
25.26
20.75
17.92
17.10
18.05
20.12
22.46
24.36
25.43
25.68
25.35
24.67
23.73
22.40
20.35
17.30
13.15
8.07
2.46
-3.21
-8.57
-13.47
-17.98
-22.31
-26.72
-31.48
-36.83
-42.97
-49.91
-57.29
-64.26
-69.43
-71.19
-68.23
-60.00
-47.07
-30.97
-13.76
2.56
16.56
27.51
35.34
40.26
42.59
42.64
40.78
37.49
33.45
29.42
26.09
23.93
23.10
23.45
24.66
26.39
28.32
30.18
31.75
32.77
32.97
32.17
30.33
27.56
24.11
20.23
16.07
11.60
6.72
1.37
-4.33
-10.07
-15.49
-20.31
-24.46
-28.17
-31.83
-35.95
-40.99
-47.21
-54.53
-62.34
-69.44
-74.18
-74.87
-70.29
-60.19
-45.49
-28.00
-9.95
6.66
20.50
30.97
38.12
42.28
43.83
43.21
40.85
37.27
33.13
29.10
25.79
23.61
22.74
23.06
24.30
26.04
27.89
29.50
30.67
31.24
31.10
30.18
28.45
25.97
22.93
19.59
16.11
12.56
8.80
4.62
-0.13
-5.42
-11.02
-16.58
-21.81
-26.63
-31.21
-35.94
-41.30
-47.59
-54.71
-61.98
-68.16
-71.62
-70.81
-64.73
-53.30
-37.51
-19.18
-0.48
16.62
30.73
41.25
48.23
52.11
53.51
53.01
51.26
49.02
47.17
46.65
48.09
51.62
56.74
62.55
68.21
73.26
77.82
82.24
86.65
90.50
92.58
91.38
85.78
75.65
61.92
46.28
30.51
15.88
2.86
-8.80
-19.71
-30.48
-41.50
-52.93
-64.71
-76.56
-87.84
-97.52
-104.18
-106.39
-103.18
-94.44
-81.10
-64.91
-47.98
-32.19
-18.85
-8.57
-1.45
2.68
4.14
3.42
1.23
-1.49
-3.81
-5.08
-5.17
-4.45
-3.51
-2.73
-2.10
-1.18
0.53
3.17
6.32
9.14
10.80
10.82
9.29
6.67
3.45
-0.08
-3.91
-8.16
-12.83
-17.75
-22.71
-27.63
-32.68
-38.19
-44.43
-51.29
-58.15
-63.93
-67.38
-67.42
-63.46
-55.50
-44.14
-30.44
-15.78
-1.61
10.77
20.44
26.99
30.59
31.80
31.34
29.87
27.80
25.37
22.80
20.43
18.77
18.33
19.40
21.85
25.22
28.81
31.91
34.00
34.79
34.19
32.22
28.93
24.39
18.73
12.16
5.07
-2.16
-9.19
-15.87
-22.34
-28.89
-35.86
-43.43
-51.54
-59.86
-67.75
-74.33
-78.54
-79.40
-76.21
-68.89
-58.16
-45.43
-32.45
-20.78
-11.39
-4.57
-0.08
2.43
3.14
1.89
-1.66
-7.69
-15.91
-25.40
-34.87
-43.09
-49.39
-53.97
-57.72
-61.83
-67.15
-73.90
-81.62
-89.52
-96.82
-103.19
-108.72
-113.94
-119.74
-127.23
-137.63
-152.09
-171.33
-195.18
-222.33
-250.09
-274.84
-292.70
-300.52
-296.68
-281.49
-256.92
-225.80
-190.78
-153.58
-114.81
-74.44
-32.63
9.51
49.79
85.49
114.22
134.66
146.68
150.83
147.69
137.55
120.76
98.51
73.40
49.29
30.23
19.01
16.13
19.82
27.09
35.18
42.70
49.76
57.33
66.34
76.99
88.74
100.67
111.91
121.87
130.30
137.15
142.42
146.12
148.23
148.53
146.60
141.87
133.96
123.16
110.79
99.11
90.60
86.82
87.61
90.95
93.92
94.13
90.95
85.74
80.95
78.75
79.99
83.98
89.14
93.96
97.61
99.82
100.43
98.99
94.88
87.88
78.73
69.09
60.99
55.84
53.67
53.10
51.90
48.01
40.44
29.61
17.06
4.61
-6.45
-15.81
-24.06
-32.06
-40.30
-48.46
-55.49
-60.09
-61.29
-58.97
-53.83
-47.19
-40.59
-35.46
-32.85
-33.33
-36.79
-42.38
-48.59
-53.51
-55.41
-53.26
-47.06
-37.66
-26.16
-13.38
0.53
15.84
32.74
50.83
68.95
85.51
99.04
108.65
114.24
116.35
115.83
113.70
110.95
108.49
107.04
106.87
107.57
108.10
106.90
102.44
93.86
81.43
66.79
52.58
41.67
36.17
36.60
41.80
49.51
57.34
63.68
67.76
69.06
66.43
57.84
41.17
15.89
-15.58
-47.68
-73.35
-86.68
-85.47
-72.09
-52.44
-33.42
-20.41
-15.84
-19.27
-28.50
-40.74
-53.39
-64.16
-71.10
-72.86
-69.26
-61.80
-53.51
-48.09
-48.46
-55.48
-67.49
-80.92
-91.58
-96.08
-92.82
-82.20
-66.23
-47.76
-29.69
-14.38
-3.26
3.29
5.95
6.27
6.43
8.73
14.99
25.96
40.96
57.92
73.99
86.37
93.20
93.98
89.45
81.13
70.69
59.52
48.62
38.67
30.04
22.86
16.92
11.81
7.10
2.54
-1.77
-5.41
-7.81
-8.40
-6.89
-3.31
1.90
7.94
13.86
18.75
21.96
23.19
22.49
20.06
16.18
11.13
5.23
-1.13
-7.36
-12.77
-16.54
-18.01
-16.85
-13.33
-8.32
-3.17
0.76
2.52
1.89
-0.61
-4.05
-7.53
-10.51
-12.86
-14.73
-16.22
-17.21
-17.40
-16.45
-14.25
-11.00
-7.12
-3.05
0.94
4.83
8.72
12.68
16.56
19.99
22.48
23.62
23.27
21.58
18.99
16.12
13.53
11.65
10.61
10.14
9.69
8.52
6.00
1.91
-3.37
-8.91
-13.53
-16.29
-16.94
-16.06
-14.89
-14.80
-16.62
-20.29
-24.88
-28.97
-31.29
-31.22
-28.97
-25.57
-22.64
-22.14
-26.03
-35.65
-51.00
-70.17
-89.42
-104.08
-110.07
-105.46
-91.24
-70.95
-49.28
-30.38
-16.70
-8.70
-5.34
-5.04
-6.31
-8.05
-9.44
-9.78
-8.39
-4.78
1.13
8.97
17.91
27.01
35.42
42.58
48.26
52.45
55.19
56.62
56.90
56.26
55.09
53.81
52.85
52.52
52.87
53.68
54.41
54.43
53.20
50.55
46.55
41.29
34.57
25.82
14.28
-0.43
-17.81
-36.37
-53.90
-68.22
-78.05
-83.36
-85.16
-84.93
-83.93
-82.83
-81.67
-80.02
-77.09
-71.88
-63.31
-50.70
-34.24
-15.33
3.55
19.53
30.30
34.88
33.70
28.07
19.45
8.90
-2.87
-15.10
-26.61
-35.80
-41.08
-41.54
-37.40
-30.01
-21.27
-12.88
-5.81
-0.16
4.49
8.55
12.11
14.91
16.64
17.27
17.06
16.32
15.08
13.00
9.71
5.34
0.84
-2.26
-2.56
0.30
5.35
10.64
14.13
14.65
12.22
7.88
2.92
-1.68
-5.55
-8.67
-11.00
-12.30
-12.20
-10.62
-8.00
-5.30
-3.58
-3.52
-5.10
-7.62
-10.03
-11.42
-11.33
-9.82
-7.34
-4.47
-1.69
0.70
2.53
3.67
4.01
3.52
2.30
0.67
-0.90
-1.92
-2.13
-1.53
-0.45
0.64
1.32
1.44
1.17
0.84
0.79
1.14
1.74
2.24
2.26
1.57
0.22
-1.55
-3.37
-4.89
-5.92
-6.44
-6.65
-6.88
-7.55
-9.03
-11.47
-14.70
-18.21
-21.24
-22.98
-22.89
-20.86
-17.14
-12.27
-6.82
-1.23
4.20
9.16
13.22
15.79
16.32
14.58
10.91
6.24
1.90
-0.80
-0.96
1.56
6.10
11.25
15.33
16.75
14.75
9.74
3.36
-2.01
-4.13
-1.83
4.37
12.27
18.70
20.59
16.02
4.76
-11.50
-29.68
-46.04
-57.19
-61.06
-57.36
-47.69
-34.90
-22.14
-11.84
-5.24
-2.28
-2.03
-3.20
-4.54
-5.11
-4.30
-1.89
1.94
6.57
11.05
14.41
15.93
15.42
13.27
10.26
7.26
4.94
3.55
2.94
2.67
2.24
1.35
-0.03
-1.66
-3.13
-4.12
-4.47
-4.29
-3.90
-3.66
-3.88
-4.66
-5.89
-7.30
-8.58
-9.55
-10.18
-10.69
-11.46
-12.92
-15.42
-19.01
-23.40
-27.84
-31.39
-33.08
-32.33
-29.03
-23.68
-17.12
-10.24
-3.76
1.97
6.84
10.90
14.12
16.34
17.37
17.14
15.83
13.89
11.90
10.41
9.74
9.94
10.82
12.06
13.40
14.72
16.04
17.43
18.94
20.54
22.05
23.22
23.78
23.60
22.70
21.35
19.85
18.47
17.32
16.33
15.24
13.73
11.65
9.10
6.45
4.17
2.67
2.34
3.40
5.96
10.05
15.79
23.36
32.91
44.10
56.06
67.68
77.72
85.12
89.08
89.09
84.76
75.72
61.55
42.41
19.65
-4.31
-26.75
-45.79
-60.97
-73.38
-83.22
-89.81
-92.56
-90.53
-83.36
-71.54
-57.82
-46.11
-39.75
-40.05
-46.07
-55.23
-64.58
-72.09
-77.15
-80.28
-81.98
-82.15
-80.06
-75.08
-67.28
-57.48
-47.05
-37.39
-29.34
-22.92
-17.40
-11.78
-5.27
2.46
11.27
20.55
29.32
36.42
41.00
42.94
43.06
42.83
43.79
46.89
51.95
57.74
62.59
65.31
65.89
65.40
65.31
66.55
68.96
71.33
72.10
70.26
65.79
59.56
52.73
46.07
39.65
32.97
25.39
16.63
6.87
-3.35
-13.47
-23.23
-32.68
-41.99
-51.15
-59.69
-66.74
-71.26
-72.41
-69.77
-63.53
-54.34
-43.18
-31.23
-19.69
-9.72
-2.14
2.68
5.02
5.66
5.59
5.61
6.10
7.01
8.06
9.01
9.81
10.58
11.47
12.62
13.97
15.38
16.62
17.45
17.69
17.22
16.00
14.11
11.71
9.02
6.22
3.46
0.72
-2.13
-5.34
-9.18
-13.81
-19.12
-24.62
-29.48
-32.67
-33.29
-30.83
-25.38
-17.66
-8.73
0.26
8.41
15.17
20.38
24.07
26.36
27.32
26.98
25.39
22.67
19.05
14.95
10.82
7.14
4.26
2.38
1.42
1.13
1.11
0.99
0.49
-0.51
-1.99
-3.85
-5.99
-8.35
-10.91
-13.72
-16.85
-20.42
-24.54
-29.20
-34.16
-38.85
-42.38
-43.82
-42.41
-37.89
-30.58
-21.36
-11.35
-1.64
6.89
13.72
18.57
21.38
22.24
21.40
19.23
16.22
12.87
9.62
6.77
4.45
2.66
1.31
0.30
-0.43
-0.95
-1.28
-1.45
-1.52
-1.60
-1.86
-2.52
-3.78
-5.79
-8.58
-12.03
-15.97
-20.20
-24.53
-28.75
-32.57
-35.57
-37.23
-37.00
-34.51
-29.67
-22.72
-14.20
-4.80
4.77
13.87
21.93
28.44
32.98
35.28
35.28
33.21
29.58
25.11
20.58
16.75
14.13
12.93
12.99
13.84
14.83
15.32
14.85
13.26
10.66
7.39
3.84
0.29
-3.15
-6.60
-10.35
-14.77
-20.08
-26.17
-32.49
-38.13
-42.01
-43.31
-41.68
-37.35
-31.01
-23.53
-15.71
-8.20
-1.46
4.08
7.97
9.73
9.08
6.02
0.96
-5.37
-11.98
-17.86
-22.10
-24.09
-23.58
-20.76
-16.11
-10.26
-3.80
2.88
9.49
15.76
21.22
25.24
27.19
26.76
24.14
19.99
15.06
9.71
3.68
-3.70
-12.97
-23.86
-35.07
-44.46
-49.77
-49.45
-43.20
-32.11
-18.41
-5.04
4.91
8.63
4.19
-8.72
-27.96
-48.82
-64.75
-69.35
-58.74
-33.18
2.77
42.02
77.69
105.56
125.03
138.28
148.31
156.96
164.21
168.65
168.76
164.08
155.45
144.52
132.73
120.71
108.18
94.45
79.26
63.39
48.63
37.18
30.71
29.47
32.12
36.15
38.94
38.78
35.50
30.35
25.20
21.63
20.18
20.18
20.26
19.12
16.17
11.89
7.48
4.30
3.16
3.88
5.46
6.56
6.15
3.99
0.62
-3.12
-6.61
-9.84
-13.27
-17.46
-22.59
-28.36
-34.22
-39.96
-45.95
-53.00
-61.78
-72.20
-83.23
-93.17
-100.46
-104.12
-104.04
-100.61
-94.40
-85.90
-75.63
-64.42
-53.51
-44.43
-38.49
-36.36
-37.86
-41.98
-47.27
-52.06
-54.77
-54.23
-49.91
-42.16
-32.21
-21.80
-12.64
-5.83
-1.61
0.53
1.32
1.29
0.56
-1.07
-3.77
-7.48
-12.01
-17.12
-22.93
-29.73
-37.69
-46.46
-54.83
-61.05
-63.41
-61.18
-55.10
-47.12
-39.71
-34.92
-33.75
-36.21
-41.58
-48.69
-56.16
-62.25
-65.04
-62.80
-54.48
-40.23
-21.39
-0.17
20.97
39.98
55.40
66.42
72.81
74.72
72.66
67.40
59.79
50.70
40.99
31.48
22.91
15.80
10.20
5.68
1.44
-3.35
-9.17
-16.06
-23.59
-31.10
-37.84
-43.05
-45.98
-45.93
-42.39
-35.24
-24.86
-12.19
1.53
14.92
26.71
35.86
41.58
43.42
41.43
36.17
28.76
20.59
13.03
7.01
2.90
0.54
-0.47
-0.53
0.13
1.40
3.18
5.21
7.03
8.03
7.62
5.36
1.17
-4.63
-11.28
-17.76
-22.96
-26.03
-26.55
-24.74
-21.38
-17.62
-14.56
-12.90
-12.58
-12.70
-11.72
-8.01
-0.42
11.14
25.59
40.92
54.90
65.82
73.09
77.35
80.04
82.66
85.99
89.72
92.57
92.76
88.77
79.67
65.28
46.07
23.27
-0.75
-22.31
-36.87
-40.35
-31.02
-10.77
14.88
38.71
54.52
59.41
54.54
43.92
32.15
22.51
16.15
12.59
10.68
9.33
7.60
4.56
-0.83
-9.38
-21.19
-35.35
-49.94
-62.54
-70.98
-73.87
-70.92
-62.92
-51.42
-38.31
-25.37
-13.95
-4.75
2.08
6.77
9.65
11.06
11.19
10.31
8.68
6.63
4.51
2.67
1.36
0.74
0.81
1.42
2.30
3.07
3.46
3.28
2.56
1.43
0.07
-1.39
-2.90
-4.48
-6.21
-8.17
-10.42
-12.95
-15.72
-18.66
-21.70
-24.87
-28.26
-32.04
-36.36
-41.22
-46.32
-51.07
-54.62
-56.12
-54.97
-50.99
-44.58
-36.50
-27.71
-19.05
-11.07
-4.02
2.04
7.10
11.10
14.00
15.79
16.64
16.81
16.55
16.06
15.40
14.54
13.47
12.28
11.19
10.51
10.48
11.16
12.35
13.68
14.66
14.90
14.15
12.39
9.69
6.21
2.17
-2.24
-6.81
-11.42
-16.05
-20.78
-25.69
-30.64
-35.17
-38.50
-39.69
-38.05
-33.39
-26.17
-17.26
-7.75
1.45
9.70
16.67
22.18
26.16
28.58
29.53
29.22
27.97
26.17
24.15
22.12
20.18
18.34
16.57
14.91
13.37
12.00
10.83
9.79
8.77
7.56
6.02
4.04
1.64
-1.08
-3.97
-6.88
-9.81
-12.83
-16.13
-19.88
-24.20
-29.01
-34.00
-38.54
-41.85
-43.08
-41.62
-37.23
-30.18
-21.11
-10.96
-0.67
8.93
17.26
23.98
28.96
32.17
33.71
33.72
32.43
30.19
27.40
24.39
21.45
18.73
16.29
14.19
12.50
11.32
10.62
10.28
9.96
9.34
8.16
6.37
4.13
1.67
-0.82
-3.29
-5.80
-8.52
-11.59
-15.13
-19.23
-23.83
-28.73
-33.42
-37.21
-39.27
-38.87
-35.60
-29.50
-21.10
-11.25
-1.00
8.68
17.05
23.70
28.53
31.63
33.21
33.46
32.55
30.65
28.00
24.90
21.67
18.58
15.83
13.52
11.70
10.40
9.62
9.26
9.15
8.98
8.41
7.20
5.27
2.72
-0.15
-3.02
-5.67
-8.09
-10.54
-13.39
-17.02
-21.61
-27.06
-32.84
-38.19
-42.15
-43.87
-42.75
-38.61
-31.75
-22.88
-12.92
-2.84
6.58
14.79
21.52
26.61
30.00
31.68
31.72
30.34
27.94
25.01
22.01
19.23
16.77
14.58
12.58
10.83
9.44
8.54
8.13
8.07
8.01
7.62
6.65
5.01
2.85
0.39
-2.11
-4.50
-6.72
-8.89
-11.15
-13.71
-16.75
-20.38
-24.66
-29.43
-34.26
-38.39
-40.83
-40.63
-37.22
-30.71
-21.83
-11.77
-1.78
7.22
14.68
20.44
24.54
27.04
28.03
27.63
26.05
23.62
20.75
17.79
15.00
12.51
10.36
8.52
7.00
5.85
5.17
5.01
5.30
5.80
6.14
5.98
5.11
3.53
1.45
-0.89
-3.26
-5.57
-7.79
-9.99
-12.28
-14.82
-17.88
-21.61
-25.91
-30.26
-33.71
-35.15
-33.69
-29.05
-21.68
-12.64
-3.17
5.64
13.13
19.06
23.42
26.31
27.77
27.85
26.68
24.52
21.75
18.77
15.88
13.20
10.73
8.38
6.17
4.22
2.74
1.87
1.59
1.73
1.97
2.02
1.66
0.77
-0.64
-2.54
-4.81
-7.29
-9.81
-12.26
-14.70
-17.32
-20.39
-24.07
-28.15
-32.04
-34.84
-35.62
-33.71
-28.98
-21.84
-13.15
-3.94
4.85
12.56
18.83
23.53
26.65
28.19
28.20
26.84
24.41
21.33
18.09
15.06
12.40
10.03
7.80
5.66
3.70
2.16
1.28
1.09
1.38
1.70
1.60
0.78
-0.84
-3.07
-5.62
-8.19
-10.57
-12.72
-14.72
-16.83
-19.34
-22.52
-26.44
-30.78
-34.83
-37.63
-38.17
-35.79
-30.41
-22.56
-13.22
-3.48
5.70
13.66
20.04
24.69
27.55
28.64
28.11
26.24
23.49
20.32
17.14
14.22
11.63
9.34
7.30
5.50
3.98
2.84
2.14
1.88
1.87
1.86
1.55
0.70
-0.73
-2.61
-4.73
-6.89
-9.01
-11.18
-13.52
-16.26
-19.52
-23.36
-27.65
-31.95
-35.55
-37.46
-36.78
-32.92
-26.00
-16.81
-6.56
3.44
12.20
19.18
24.28
27.60
29.31
29.55
28.52
26.46
23.70
20.61
17.45
14.39
11.50
8.83
6.49
4.61
3.30
2.62
2.47
2.63
2.80
2.68
2.02
0.75
-1.08
-3.29
-5.68
-8.09
-10.46
-12.91
-15.63
-18.86
-22.76
-27.26
-31.96
-36.18
-39.04
-39.61
-37.24
-31.79
-23.67
-13.78
-3.25
6.87
15.74
22.86
27.92
30.83
31.58
30.37
27.59
23.80
19.60
15.52
11.92
8.92
6.55
4.78
3.56
2.87
2.64
2.72
2.92
3.00
2.74
2.01
0.74
-0.99
-3.05
-5.33
-7.74
-10.29
-13.08
-16.25
-19.96
-24.20
-28.69
-32.82
-35.72
-36.45
-34.34
-29.23
-21.57
-12.29
-2.54
6.65
14.58
20.90
25.50
28.40
29.65
29.32
27.57
24.68
21.06
17.14
13.32
9.89
7.02
4.78
3.20
2.28
1.95
2.07
2.39
2.60
2.39
1.58
0.19
-1.63
-3.66
-5.76
-7.93
-10.35
-13.27
-16.97
-21.51
-26.68
-31.89
-36.24
-38.65
-38.25
-34.54
-27.65
-18.32
-7.64
3.17
13.07
21.31
27.47
31.42
33.18
33.02
31.32
28.55
25.22
21.69
18.23
14.97
12.01
9.47
7.51
6.22
5.59
5.45
5.49
5.35
4.78
3.62
1.92
-0.20
-2.58
-5.06
-7.61
-10.25
-13.11
-16.42
-20.42
-25.26
-30.84
-36.62
-41.63
-44.63
-44.46
-40.40
-32.53
-21.68
-9.21
3.36
14.73
24.06
30.96
35.39
37.47
37.45
35.65
32.47
28.42
24.05
19.83
16.08
12.94
10.39
8.37
6.83
5.79
5.27
5.21
5.43
5.56
5.22
4.10
2.12
-0.52
-3.48
-6.46
-9.32
-12.17
-15.35
-19.23
-24.03
-29.69
-35.71
-41.21
-45.04
-46.05
-43.41
-36.92
-27.07
-15.00
-2.18
9.95
20.35
28.40
33.95
37.12
38.12
37.28
34.94
31.55
27.58
23.48
19.62
16.19
13.29
10.97
9.29
8.28
7.94
8.12
8.52
8.78
8.55
7.60
5.86
3.42
0.47
-2.76
-6.09
-9.47
-12.97
-16.86
-21.48
-27.05
-33.45
-40.02
-45.57
-48.66
-48.02
-43.03
-33.98
-22.03
-8.84
3.92
14.96
23.60
29.65
33.27
34.72
34.27
32.17
28.78
24.50
19.84
15.32
11.39
8.38
6.47
5.65
5.75
6.46
7.37
8.07
8.22
7.63
6.29
4.34
1.99
-0.58
-3.30
-6.21
-9.45
-13.21
-17.69
-22.93
-28.80
-34.75
-39.89
-43.03
-43.05
-39.24
-31.58
-20.88
-8.51
3.95
15.14
24.22
30.81
34.90
36.65
36.32
34.19
30.65
26.21
21.39
16.71
12.62
9.44
7.38
6.50
6.70
7.64
8.85
9.77
9.97
9.19
7.50
5.11
2.32
-0.65
-3.75
-7.06
-10.79
-15.14
-20.30
-26.29
-32.85
-39.35
-44.76
-47.81
-47.37
-42.75
-34.04
-22.13
-8.54
5.06
17.22
26.99
34.01
38.34
40.25
40.06
38.12
34.80
30.58
26.02
21.67
18.00
15.28
13.57
12.77
12.70
13.12
13.80
14.45
14.78
14.48
13.32
11.17
8.06
4.16
-0.20
-4.68
-9.00
-13.07
-17.08
-21.48
-26.77
-33.20
-40.46
-47.52
-52.80
-54.61
-51.77
-44.03
-32.19
-17.85
-2.87
11.13
23.08
32.45
39.10
43.10
44.58
43.77
41.10
37.14
32.63
28.25
24.53
21.73
19.87
18.76
18.15
17.84
17.76
17.93
18.37
18.95
19.39
19.23
18.03
15.52
11.76
7.13
2.22
-2.44
-6.53
-10.11
-13.52
-17.28
-21.90
-27.71
-34.63
-42.12
-49.09
-54.11
-55.72
-52.89
-45.36
-33.80
-19.68
-4.85
9.01
20.77
29.92
36.51
40.85
43.21
43.82
42.82
40.42
37.00
33.07
29.22
26.01
23.76
22.58
22.35
22.75
23.39
23.89
24.03
23.72
23.02
22.02
20.73
19.04
16.75
13.73
9.95
5.60
1.03
-3.42
-7.56
-11.40
-15.10
-18.83
-22.69
-26.77
-31.17
-36.06
-41.57
-47.57
-53.49
-58.21
-60.32
-58.61
-52.49
-42.30
-29.20
-14.80
-0.66
12.02
22.52
30.55
35.99
38.85
39.23
37.46
34.05
29.74
25.34
21.54
18.80
17.31
16.98
17.53
18.55
19.63
20.49
20.96
21.05
20.87
20.51
19.94
18.97
17.33
14.79
11.29
7.02
2.38
-2.16
-6.26
-9.79
-12.93
-15.98
-19.33
-23.27
-27.95
-33.31
-39.04
-44.54
-48.96
-51.22
-50.35
-45.72
-37.35
-25.95
-12.80
0.58
12.86
23.14
31.00
36.40
39.48
40.46
39.58
37.16
33.68
29.73
25.92
22.75
20.53
19.34
19.08
19.59
20.67
22.04
23.39
24.37
24.62
23.91
22.19
19.63
16.51
13.20
9.95
6.86
3.86
0.77
-2.61
-6.40
-10.57
-14.92
-19.17
-23.06
-26.51
-29.63
-32.79
-36.47
-41.05
-46.61
-52.63
-58.07
-61.55
-61.74
-57.83
-49.80
-38.41
-25.00
-11.07
2.09
13.59
22.95
30.01
34.77
37.32
37.85
36.69
34.27
31.19
27.98
25.09
22.78
21.13
20.11
19.68
19.82
20.47
21.46
22.51
23.23
23.25
22.38
20.62
18.16
15.25
12.10
8.81
5.43
1.92
-1.71
-5.43
-9.20
-12.98
-16.74
-20.46
-24.10
-27.65
-31.15
-34.77
-38.76
-43.36
-48.53
-53.84
-58.33
-60.77
-59.99
-55.31
-46.84
-35.42
-22.33
-8.95
3.57
14.41
23.12
29.48
33.43
35.11
34.83
33.06
30.36
27.31
24.34
21.79
19.80
18.44
17.68
17.41
17.50
17.75
18.01
18.12
18.00
17.61
16.95
15.99
14.64
12.77
10.27
7.10
3.36
-0.74
-4.85
-8.71
-12.17
-15.26
-18.16
-21.13
-24.47
-28.39
-33.07
-38.46
-44.25
-49.68
-53.70
-55.15
-53.12
-47.28
-38.01
-26.27
-13.33
-0.43
11.45
21.59
29.56
35.10
38.16
38.88
37.65
35.00
31.54
27.83
24.37
21.49
19.39
18.11
17.52
17.38
17.44
17.49
17.41
17.17
16.75
16.11
15.12
13.64
11.56
8.82
5.53
1.86
-1.96
-5.75
-9.40
-12.92
-16.35
-19.79
-23.39
-27.32
-31.73
-36.63
-41.75
-46.45
-49.78
-50.71
-48.50
-42.95
-34.42
-23.80
-12.12
-0.38
10.62
20.27
28.12
33.82
37.19
38.27
37.29
34.71
31.14
27.17
23.36
20.15
17.79
16.33
15.67
15.60
15.88
16.27
16.58
16.66
16.37
15.57
14.22
12.32
9.90
7.04
3.78
0.16
-3.72
-7.72
-11.66
-15.35
-18.69
-21.74
-24.74
-28.07
-32.08
-36.92
-42.40
-47.89
-52.39
-54.76
-54.03
-49.70
-41.94
-31.52
-19.60
-7.37
4.15
14.25
22.54
28.81
33.01
35.19
35.52
34.30
31.92
28.86
25.55
22.39
19.67
17.58
16.16
15.35
15.02
14.98
15.04
15.08
14.99
14.64
13.91
12.61
10.61
7.86
4.45
0.59
-3.43
-7.34
-11.00
-14.38
-17.55
-20.64
-23.82
-27.29
-31.28
-35.97
-41.30
-46.84
-51.70
-54.72
-54.78
-51.21
-44.05
-34.03
-22.32
-10.20
1.30
11.48
19.92
26.38
30.72
32.86
32.90
31.15
28.13
24.48
20.84
17.69
15.25
13.55
12.45
11.76
11.38
11.24
11.36
11.66
12.03
12.20
11.86
10.75
8.74
5.94
2.61
-0.90
-4.26
-7.33
-10.12
-12.86
-15.80
-19.27
-23.44
-28.31
-33.58
-38.70
-42.89
-45.25
-44.97
-41.54
-34.87
-25.40
-14.05
-2.00
9.49
19.38
26.99
32.08
34.76
35.36
34.27
31.89
28.62
24.94
21.35
18.34
16.21
14.99
14.47
14.31
14.17
13.86
13.33
12.64
11.86
10.96
9.82
8.25
6.07
3.24
-0.15
-3.88
-7.65
-11.23
-14.56
-17.74
-21.06
-24.84
-29.26
-34.29
-39.49
-44.16
-47.41
-48.40
-46.54
-41.64
-33.99
-24.23
-13.24
-1.97
8.72
18.10
25.62
30.91
33.84
34.49
33.26
30.69
27.42
24.04
20.97
18.41
16.39
14.85
13.72
12.94
12.46
12.22
12.10
11.95
11.60
10.87
9.56
7.52
4.71
1.20
-2.77
-6.84
-10.68
-14.05
-17.01
-19.80
-22.82
-26.44
-30.87
-36.03
-41.51
-46.59
-50.36
-51.94
-50.62
-46.12
-38.60
-28.69
-17.33
-5.55
5.66
15.52
23.46
29.17
32.57
33.75
33.02
30.83
27.73
24.28
20.99
18.25
16.27
15.09
14.61
14.61
14.85
15.09
15.13
14.87
14.24
13.20
11.71
9.76
7.30
4.35
0.97
-2.74
-6.61
-10.51
-14.35
-18.09
-21.83
-25.72
-29.96
-34.63
-39.66
-44.69
-49.07
-51.98
-52.53
-50.08
-44.43
-35.88
-25.20
-13.45
-1.71
9.12
18.38
25.66
30.73
33.51
34.06
32.62
29.67
25.86
21.90
18.40
15.75
14.09
13.31
13.17
13.39
13.75
14.09
14.28
14.29
14.06
13.52
12.51
10.83
8.30
4.89
0.80
-3.59
-7.84
-11.67
-15.01
-18.09
-21.29
-25.03
-29.56
-34.87
-40.62
-46.14
-50.55
-52.82
-52.12
-47.93
-40.34
-29.97
-17.87
-5.24
6.80
17.37
25.89
32.00
35.57
36.66
35.58
32.86
29.18
25.28
21.72
18.90
16.96
15.86
15.46
15.54
15.89
16.26
16.47
16.41
16.00
15.21
13.92
12.03
9.44
6.15
2.37
-1.59
-5.39
-8.90
-12.25
-15.78
-19.93
-24.94
-30.76
-36.94
-42.73
-47.17
-49.31
-48.37
-43.96
-36.13
-25.52
-13.17
-0.37
11.65
21.98
30.08
35.81
39.29
40.70
40.29
38.31
35.15
31.32
27.47
24.15
21.79
20.46
20.02
20.11
20.38
20.55
20.48
20.10
19.36
18.19
16.52
14.24
11.31
7.77
3.76
-0.52
-4.81
-8.92
-12.83
-16.65
-20.66
-25.17
-30.34
-36.14
-42.26
-48.15
-53.05
-56.13
-56.58
-53.83
-47.70
-38.50
-27.00
-14.25
-1.42
10.48
20.72
28.84
34.64
38.11
39.38
38.72
36.55
33.37
29.78
26.34
23.53
21.63
20.70
20.59
20.95
21.41
21.64
21.46
20.84
19.86
18.59
17.05
15.13
12.66
9.46
5.55
1.10
-3.56
-8.10
-12.30
-16.16
-19.95
-24.04
-28.76
-34.25
-40.31
-46.35
-51.50
-54.74
-55.13
-52.05
-45.43
-35.72
-23.86
-11.01
1.69
13.30
23.14
30.86
36.25
39.29
40.07
38.85
36.08
32.39
28.50
25.04
22.43
20.81
20.05
19.89
20.04
20.28
20.42
20.34
19.94
19.13
17.88
16.20
14.17
11.85
9.23
6.26
2.84
-1.09
-5.45
-10.05
-14.60
-18.92
-22.98
-26.99
-31.35
-36.39
-42.16
-48.30
-53.99
-58.15
-59.68
-57.78
-52.16
-43.06
-31.21
-17.69
-3.75
9.41
20.77
29.60
35.48
38.39
38.62
36.72
33.43
29.53
25.71
22.50
20.18
18.78
18.16
18.04
18.22
18.49
18.78
19.07
19.29
19.33
19.00
18.06
16.29
13.65
10.23
6.30
2.22
-1.72
-5.36
-8.77
-12.16
-15.88
-20.28
-25.55
-31.60
-38.05
-44.13
-48.86
-51.14
-50.06
-45.13
-36.47
-24.80
-11.35
2.45
15.26
26.05
34.24
39.60
42.24
42.46
40.67
37.43
33.39
29.24
25.62
22.97
21.40
20.75
20.67
20.75
20.71
20.44
19.96
19.36
18.65
17.73
16.44
14.60
12.11
8.99
5.34
1.28
-3.09
-7.65
-12.29
-16.88
-21.29
-25.49
-29.62
-33.98
-38.90
-44.43
-50.20
-55.30
-58.56
-58.85
-55.50
-48.45
-38.29
-26.01
-12.79
0.25
12.12
22.08
29.63
34.56
37.00
37.27
35.86
33.34
30.21
26.95
23.97
21.60
20.02
19.27
19.24
19.69
20.37
21.07
21.57
21.71
21.33
20.34
18.64
16.24
13.22
9.71
5.85
1.82
-2.26
-6.28
-10.20
-14.04
-17.90
-21.92
-26.26
-31.03
-36.29
-41.91
-47.57
-52.64
-56.28
-57.53
-55.63
-50.20
-41.44
-30.08
-17.26
-4.23
7.89
18.26
26.41
32.15
35.54
36.81
36.27
34.31
31.36
27.93
24.47
21.39
18.99
17.37
16.51
16.25
16.46
16.98
17.69
18.41
18.95
19.07
18.57
17.30
15.25
12.54
9.32
5.78
2.07
-1.74
-5.58
-9.40
-13.17
-16.88
-20.58
-24.43
-28.66
-33.50
-38.97
-44.82
-50.42
-54.84
-57.02
-56.09
-51.58
-43.57
-32.72
-20.08
-6.88
5.70
16.74
25.64
32.07
35.97
37.42
36.67
34.11
30.30
25.92
21.69
18.24
15.94
14.87
14.76
15.21
15.80
16.29
16.66
17.03
17.48
17.94
18.11
17.60
16.09
13.48
10.00
6.04
2.04
-1.78
-5.39
-8.97
-12.73
-16.79
-21.22
-25.94
-30.86
-35.83
-40.52
-44.37
-46.58
-46.26
-42.68
-35.63
-25.54
-13.45
-0.75
11.24
21.50
29.54
35.23
38.72
40.15
39.75
37.73
34.45
30.44
26.30
22.61
19.79
18.05
17.30
17.34
17.84
18.49
19.06
19.34
19.22
18.61
17.48
15.83
13.67
11.03
7.96
4.55
0.93
-2.77
-6.46
-10.11
-13.79
-17.61
-21.74
-26.26
-31.19
-36.48
-41.95
-47.30
-52.02
-55.42
-56.71
-55.17
-50.38
-42.41
-31.82
-19.61
-6.93
5.11
15.61
24.02
30.08
33.76
35.20
34.73
32.75
29.83
26.53
23.39
20.78
18.86
17.61
16.88
16.49
16.29
16.23
16.25
16.31
16.32
16.17
15.68
14.68
13.01
10.59
7.45
3.74
-0.32
-4.53
-8.68
-12.64
-16.32
-19.72
-22.93
-26.19
-29.89
-34.35
-39.63
-45.35
-50.62
-54.27
-55.21
-52.73
-46.74
-37.72
-26.54
-14.27
-1.98
9.36
18.98
26.36
31.29
33.87
34.43
33.39
31.18
28.18
24.73
21.20
17.99
15.40
13.66
12.78
12.60
12.84
13.16
13.33
13.23
12.86
12.27
11.50
10.48
9.06
7.03
4.28
0.88
-2.97
-6.94
-10.81
-14.49
-18.05
-21.64
-25.42
-29.51
-33.94
-38.63
-43.36
-47.64
-50.74
-51.76
-49.89
-44.71
-36.38
-25.64
-13.59
-1.44
9.77
19.27
26.59
31.44
33.81
33.85
31.95
28.70
24.74
20.71
17.12
14.29
12.33
11.23
10.83
10.94
11.39
12.03
12.72
13.27
13.44
12.96
11.64
9.50
6.71
3.59
0.38
-2.78
-5.93
-9.24
-12.85
-16.87
-21.33
-26.20
-31.37
-36.63
-41.49
-45.30
-47.25
-46.62
-42.98
-36.38
-27.31
-16.61
-5.31
5.62
15.41
23.47
29.47
33.25
34.81
34.31
32.13
28.83
25.06
21.45
18.46
16.31
14.96
14.24
13.98
14.05
14.35
14.77
15.16
15.27
14.86
13.75
11.86
9.20
5.90
2.14
-1.85
-5.85
-9.66
-13.22
-16.55
-19.84
-23.45
-27.69
-32.77
-38.57
-44.56
-49.82
-53.26
-53.84
-50.92
-44.48
-35.06
-23.64
-11.37
0.67
11.62
20.83
27.90
32.61
34.98
35.27
33.91
31.48
28.50
25.44
22.65
20.37
18.75
17.87
17.66
17.95
18.48
18.97
19.26
19.29
19.03
18.42
17.32
15.55
12.95
9.53
5.49
1.17
-3.07
-7.00
-10.57
-13.89
-17.24
-20.89
-25.13
-30.10
-35.74
-41.68
-47.17
-51.22
-52.78
-51.08
-45.84
-37.39
-26.58
-14.54
-2.46
8.63
18.01
25.30
30.43
33.51
34.82
34.62
33.17
30.75
27.71
24.49
21.59
19.44
18.27
18.03
18.41
19.03
19.54
19.76
19.65
19.25
18.57
17.55
16.05
13.89
11.04
7.57
3.71
-0.27
-4.16
-7.82
-11.24
-14.50
-17.75
-21.22
-25.18
-29.86
-35.35
-41.42
-47.42
-52.37
-55.18
-55.01
-51.42
-44.57
-35.05
-23.78
-11.77
-0.02
10.62
19.46
26.09
30.37
32.46
32.70
31.52
29.30
26.43
23.22
20.09
17.43
15.60
14.82
15.04
15.98
17.21
18.30
18.98
19.21
19.08
18.68
18.03
16.96
15.19
12.53
8.97
4.75
0.26
-4.11
-8.10
-11.69
-15.01
-18.33
-21.89
-25.87
-30.37
-35.38
-40.68
-45.79
-49.94
-52.12
-51.42
-47.26
-39.66
-29.28
-17.22
-4.76
6.98
17.20
25.44
31.46
35.15
36.53
35.75
33.22
29.56
25.53
21.89
19.19
17.69
17.34
17.81
18.66
19.45
19.90
19.89
19.52
18.95
18.31
17.56
16.48
14.79
12.27
8.97
5.15
1.19
-2.64
-6.28
-9.84
-13.56
-17.63
-22.15
-27.12
-32.48
-37.96
-43.09
-47.12
-49.12
-48.24
-44.04
-36.63
-26.72
-15.38
-3.73
7.25
16.92
24.90
31.00
35.13
37.25
37.43
35.89
33.00
29.31
25.45
22.04
19.55
18.22
18.03
18.76
20.04
21.47
22.66
23.34
23.33
22.59
21.17
19.16
16.65
13.71
10.38
6.73
2.90
-0.96
-4.72
-8.32
-11.84
-15.40
-19.17
-23.32
-27.94
-33.07
-38.66
-44.42
-49.79
-53.91
-55.75
-54.43
-49.54
-41.28
-30.52
-18.50
-6.52
4.41
13.63
20.91
26.19
29.51
30.94
30.60
28.77
25.95
22.82
20.02
17.99
16.83
16.34
16.19
16.16
16.19
16.36
16.79
17.43
18.05
18.34
18.04
17.04
15.34
13.06
10.28
7.03
3.34
-0.69
-4.87
-8.99
-12.83
-16.35
-19.61
-22.84
-26.33
-30.34
-35.02
-40.28
-45.67
-50.36
-53.28
-53.38
-49.98
-43.07
-33.28
-21.76
-9.79
1.53
11.44
19.51
25.53
29.43
31.26
31.20
29.58
26.87
23.57
20.18
17.13
14.74
13.21
12.61
12.86
13.66
14.70
15.66
16.32
16.60
16.50
16.03
15.15
13.76
11.77
9.16
6.02
2.52
-1.12
-4.73
-8.22
-11.58
-14.87
-18.24
-21.90
-26.10
-30.96
-36.45
-42.11
-47.11
-50.33
-50.71
-47.55
-40.78
-31.06
-19.53
-7.51
3.85
13.75
21.77
27.74
31.61
33.37
33.12
31.12
27.89
24.08
20.35
17.25
15.08
13.89
13.56
13.88
14.56
15.37
16.12
16.70
17.09
17.28
17.21
16.72
15.58
13.61
10.77
7.18
3.15
-0.98
-4.95
-8.66
-12.15
-15.57
-19.13
-23.06
-27.56
-32.70
-38.26
-43.73
-48.17
-50.48
-49.64
-45.09
-36.97
-26.12
-13.88
-1.65
9.39
18.57
25.63
30.59
33.55
34.63
33.98
31.88
28.77
25.20
21.71
18.71
16.45
15.03
14.40
14.49
15.14
16.17
17.33
18.35
18.99
19.12
18.68
17.70
16.20
14.17
11.57
8.38
4.67
0.57
-3.68
-7.86
-11.80
-15.47
-18.90
-22.27
-25.83
-29.85
-34.61
-40.15
-46.13
-51.66
-55.48
-56.23
-52.95
-45.41
-34.32
-21.10
-7.46
5.11
15.61
23.69
29.45
33.17
35.12
35.43
34.23
31.76
28.38
24.59
20.94
17.85
15.58
14.21
13.67
13.85
14.57
15.68
16.99
18.27
19.23
19.59
19.13
17.77
15.56
12.70
9.45
6.02
2.54
-0.99
-4.62
-8.43
-12.43
-16.59
-20.90
-25.37
-30.06
-35.02
-40.19
-45.41
-50.34
-54.66
-57.98
-59.98
-60.30
-58.61
-54.62
-48.24
-39.65
-29.42
-18.45
-7.89
1.12
7.61
11.00
11.28
9.03
5.34
1.58
-0.92
-1.27
0.75
4.56
8.88
12.04
12.39
8.94
1.77
-7.77
-17.43
-24.87
-28.56
-28.41
-25.61
-22.01
-19.23
-18.06
-18.35
-19.50
-20.94
-22.40
-23.96
-25.74
-27.73
-29.76
-31.67
-33.48
-35.55
-38.47
-42.70
-48.36
-54.86
-60.94
-64.93
-65.23
-60.90
-52.04
-39.71
-25.60
-11.40
1.65
12.96
22.42
30.06
35.84
39.53
40.87
39.81
36.59
31.85
26.43
21.15
16.62
13.17
10.86
9.66
9.50
10.35
12.18
14.80
17.88
20.92
23.38
24.84
25.13
24.30
22.61
20.35
17.80
15.09
12.25
9.10
5.32
0.48
-5.78
-13.55
-22.40
-31.28
-38.71
-43.18
-43.54
-39.44
-31.35
-20.37
-7.84
5.00
17.17
27.99
36.94
43.59
47.68
49.16
48.28
45.54
41.64
37.28
33.09
29.54
26.95
25.43
24.93
25.26
26.13
27.28
28.47
29.57
30.41
30.79
30.36
28.79
25.86
21.62
16.42
10.80
5.28
0.20
-4.47
-9.04
-14.08
-20.14
-27.54
-36.21
-45.51
-54.24
-60.88
-63.87
-62.06
-55.06
-43.35
-28.16
-11.14
6.01
21.93
35.65
46.63
54.63
59.63
61.80
61.53
59.41
56.17
52.53
49.09
46.20
43.93
42.22
40.91
39.92
39.25
38.88
38.70
38.45
37.70
35.96
32.89
28.40
22.71
16.30
9.77
3.58
-2.05
-7.22
-12.30
-17.77
-24.06
-31.31
-39.29
-47.24
-54.01
-58.27
-58.83
-55.00
-46.86
-35.23
-21.43
-6.95
6.95
19.37
29.80
37.96
43.68
46.89
47.67
46.32
43.40
39.54
35.34
31.23
27.48
24.19
21.46
19.37
18.02
17.41
17.43
17.77
18.01
17.67
16.38
13.97
10.53
6.39
1.97
-2.39
-6.58
-10.75
-15.26
-20.53
-26.94
-34.58
-43.14
-51.80
-59.31
-64.23
-65.22
-61.51
-53.06
-40.70
-25.84
-10.14
4.89
18.13
28.93
37.00
42.35
45.09
45.42
43.63
40.11
35.39
30.14
25.05
20.73
17.55
15.64
14.87
14.96
15.55
16.25
16.67
16.47
15.35
13.14
9.88
5.81
1.34
-3.17
-7.50
-11.73
-16.22
-21.46
-27.79
-35.13
-42.79
-49.51
-53.74
-54.07
-49.69
-40.69
-28.02
-13.24
1.94
16.05
28.06
37.39
43.84
47.46
48.45
47.13
43.95
39.42
34.13
28.64
23.45
18.94
15.39
12.93
11.55
11.12
11.38
11.95
12.44
12.39
11.43
9.35
6.15
2.04
-2.57
-7.31
-11.95
-16.53
-21.42
-27.16
-34.16
-42.45
-51.37
-59.56
-65.25
-66.71
-62.87
-53.62
-39.96
-23.61
-6.56
9.49
23.33
34.30
42.19
47.02
49.04
48.63
46.34
42.78
38.55
34.09
29.73
25.72
22.22
19.43
17.49
16.48
16.33
16.83
17.63
18.24
18.16
16.96
14.45
10.72
6.09
1.03
-4.05
-8.93
-13.69
-18.63
-24.26
-30.98
-38.90
-47.53
-55.75
-61.94
-64.41
-61.92
-54.14
-41.78
-26.38
-9.83
6.07
20.05
31.36
39.73
45.13
47.64
47.51
45.09
41.01
36.03
30.98
26.53
23.05
20.59
18.95
17.89
17.20
16.83
16.79
17.07
17.54
17.91
17.75
16.64
14.27
10.61
5.85
0.42
-5.17
-10.51
-15.36
-19.79
-24.07
-28.67
-34.04
-40.51
-48.05
-56.07
-63.42
-68.51
-69.76
-66.03
-57.13
-43.85
-27.80
-10.91
5.04
18.84
29.85
37.88
42.97
45.24
44.92
42.32
38.02
32.75
27.34
22.49
18.64
15.91
14.16
13.17
12.75
12.87
13.56
14.79
16.27
17.46
17.69
16.44
13.54
9.27
4.25
-0.81
-5.43
-9.47
-13.15
-16.94
-21.35
-26.80
-33.41
-40.86
-48.35
-54.56
-57.95
-57.18
-51.52
-41.23
-27.45
-11.95
3.41
17.15
28.39
36.81
42.45
45.48
46.14
44.69
41.51
37.12
32.14
27.18
22.78
19.29
16.88
15.52
15.04
15.14
15.49
15.79
15.88
15.68
15.21
14.45
13.34
11.70
9.32
6.05
1.89
-2.98
-8.23
-13.51
-18.54
-23.18
-27.50
-31.74
-36.26
-41.45
-47.55
-54.45
-61.54
-67.68
-71.35
-71.14
-66.13
-56.26
-42.40
-26.12
-9.24
6.58
20.15
30.82
38.38
42.95
44.81
44.34
42.00
38.28
33.70
28.77
24.03
19.95
16.88
15.02
14.32
14.57
15.39
16.38
17.22
17.74
17.87
17.61
16.90
15.60
13.50
10.45
6.44
1.66
-3.50
-8.62
-13.36
-17.56
-21.32
-24.88
-28.63
-32.92
-38.04
-44.04
-50.64
-57.13
-62.36
-65.03
-63.90
-58.30
-48.31
-34.84
-19.37
-3.63
10.86
23.03
32.31
38.58
42.03
42.99
41.86
39.07
35.03
30.21
25.10
20.23
16.07
13.01
11.21
10.62
11.00
12.02
13.34
14.69
15.83
16.59
16.76
16.15
14.60
12.01
8.45
4.08
-0.77
-5.74
-10.49
-14.84
-18.74
-22.36
-25.93
-29.74
-34.06
-39.07
-44.70
-50.60
-56.01
-59.77
-60.66
-57.69
-50.48
-39.47
-25.81
-11.08
3.19
15.81
26.06
33.62
38.43
40.57
40.19
37.58
33.21
27.75
21.98
16.66
12.36
9.32
7.47
6.56
6.29
6.51
7.16
8.23
9.64
11.08
12.06
12.11
10.88
8.32
4.70
0.47
-3.88
-7.98
-11.68
-15.08
-18.48
-22.34
-27.09
-32.91
-39.57
-46.27
-51.80
-54.78
-54.08
-49.19
-40.37
-28.57
-15.11
-1.41
11.37
22.36
31.04
37.14
40.60
41.52
40.17
36.98
32.48
27.24
21.84
16.80
12.58
9.44
7.51
6.68
6.72
7.31
8.15
9.05
9.85
10.43
10.58
10.08
8.69
6.25
2.79
-1.43
-6.05
-10.70
-15.08
-19.08
-22.76
-26.33
-30.08
-34.36
-39.45
-45.36
-51.67
-57.47
-61.42
-62.13
-58.60
-50.60
-38.77
-24.46
-9.34
5.04
17.57
27.60
34.93
39.53
41.52
41.11
38.63
34.59
29.63
24.45
19.69
15.78
12.90
10.96
9.78
9.14
8.93
9.11
9.71
10.66
11.74
12.58
12.72
11.81
9.69
6.49
2.56
-1.66
-5.80
-9.66
-13.25
-16.72
-20.36
-24.43
-29.18
-34.77
-41.12
-47.81
-54.00
-58.46
-59.86
-57.19
-50.08
-39.03
-25.32
-10.60
3.55
16.01
26.17
33.84
39.04
41.77
42.05
40.04
36.17
31.13
25.75
20.79
16.71
13.66
11.52
10.08
9.15
8.68
8.70
9.28
10.34
11.64
12.79
13.25
12.59
10.62
7.42
3.39
-0.98
-5.24
-9.16
-12.74
-16.20
-19.82
-23.90
-28.69
-34.33
-40.70
-47.26
-52.97
-56.46
-56.39
-51.94
-43.13
-30.85
-16.66
-2.23
10.99
22.08
30.64
36.58
39.96
40.87
39.49
36.13
31.32
25.73
20.10
15.02
10.84
7.70
5.54
4.30
3.93
4.43
5.74
7.65
9.74
11.43
12.13
11.40
9.17
5.68
1.50
-2.75
-6.59
-9.88
-12.82
-15.90
-19.67
-24.53
-30.53
-37.23
-43.67
-48.55
-50.51
-48.56
-42.34
-32.36
-19.76
-6.07
7.22
18.96
28.45
35.36
39.59
41.17
40.25
37.18
32.54
27.08
21.60
16.76
12.96
10.28
8.56
7.55
7.05
6.97
7.32
8.05
9.00
9.84
10.13
9.43
7.52
4.45
0.56
-3.67
-7.74
-11.34
-14.47
-17.41
-20.61
-24.59
-29.68
-35.87
-42.64
-48.97
-53.45
-54.63
-51.48
-43.73
-32.08
-17.97
-3.19
10.63
22.33
31.35
37.56
41.03
41.94
40.49
37.05
32.21
26.74
21.41
16.80
13.20
10.60
8.87
7.87
7.57
7.98
9.08
10.68
12.38
13.64
13.95
12.98
10.69
7.32
3.28
-0.97
-5.09
-8.91
-12.46
-15.94
-19.69
-24.05
-29.26
-35.24
-41.41
-46.69
-49.70
-49.16
-44.33
-35.28
-22.92
-8.73
5.71
19.01
30.29
39.08
45.27
48.92
50.22
49.42
46.89
43.15
38.86
34.76
31.52
29.63
29.21
30.04
31.67
33.63
35.67
37.74
39.94
42.28
44.53
46.23
46.90
46.22
44.28
41.46
38.31
35.27
32.53
29.99
27.46
24.75
21.77
18.51
15.02
11.48
8.40
6.68
7.56
12.28
21.54
35.13
51.84
69.70
86.47
100.11
109.03
112.16
108.98
99.54
84.55
65.48
44.40
23.74
5.84
-7.54
-15.69
-19.11
-19.40
-18.63
-18.69
-20.59
-24.36
-29.32
-34.81
-40.59
-46.95
-54.18
-62.12
-69.96
-76.78
-81.90
-85.24
-87.45
-89.59
-92.68
-97.46
-104.22
-112.79
-122.69
-132.79
-141.28
-146.09
-145.42
-138.50
-125.69
-108.40
-88.52
-68.17
-48.69
-30.27
-12.30
5.86
24.34
42.61
59.58
73.90
83.20
86.04
82.50
73.76
61.19
45.92
29.04
11.90
-3.93
-19.20
-33.96
-47.08
-57.10
-63.81
-68.25
-71.67
-74.45
-75.84
-78.26
-82.68
-87.89
-91.76
-93.77
-95.41
-99.47
-109.14
-127.49
-161.37
-212.98
-276.85
-341.24
-393.60
-424.74
-431.01
-414.55
-351.93
-242.11
-106.81
23.29
128.64
204.43
252.86
276.84
279.33
265.22
237.46
202.50
168.22
141.29
122.98
109.79
97.10
82.69
67.93
52.59
37.77
25.09
17.02
11.93
5.90
-4.23
-18.78
-35.14
-51.76
-66.79
-78.53
-86.06
-90.37
-93.15
-95.64
-98.02
-99.87
-102.17
-106.09
-112.24
-120.33
-129.49
-137.78
-142.26
-139.46
-126.36
-102.04
-67.61
-25.54
21.40
71.00
122.14
173.88
223.75
266.86
296.50
306.86
296.03
267.27
227.28
182.52
136.01
86.91
33.48
-22.80
-74.65
-110.43
-119.01
-95.53
-44.73
20.24
82.79
129.06
152.15
152.71
136.07
107.90
71.64
28.36
-20.79
-71.76
-116.65
-145.67
-151.14
-131.32
-92.02
-44.40
-0.47
31.41
48.96
55.28
56.03
56.12
57.86
60.90
63.69
65.10
65.45
66.25
69.10
74.54
81.49
87.74
91.15
90.92
88.02
84.77
83.58
85.65
90.29
95.38
98.40
97.75
93.36
86.64
79.60
73.91
70.25
68.23
66.68
64.22
59.74
52.69
43.26
32.46
21.94
13.65
9.27
9.61
14.27
21.74
29.84
36.58
40.61
41.56
39.73
35.77
30.31
23.89
17.10
10.74
5.78
3.06
2.85
4.65
7.23
9.10
9.27
7.59
4.81
2.09
0.34
-0.32
-0.61
-1.74
-4.71
-9.83
-16.50
-23.48
-29.40
-33.36
-35.24
-35.71
-35.93
-37.14
-40.16
-45.23
-51.92
-59.21
-65.80
-70.21
-71.10
-67.54
-59.27
-46.84
-31.60
-15.47
-0.38
12.12
21.34
27.42
31.21
33.83
36.35
39.48
43.58
48.78
55.10
62.56
71.10
80.51
90.25
99.48
107.22
112.65
115.33
115.25
112.74
108.14
101.71
93.57
83.82
72.70
60.54
47.62
34.05
19.79
4.87
-10.26
-24.62
-36.91
-45.88
-50.86
-52.05
-50.52
-47.87
-45.78
-45.47
-47.39
-51.02
-55.18
-58.41
-59.63
-58.41
-55.08
-50.41
-45.17
-39.76
-34.23
-28.60
-23.22
-18.91
-16.70
-17.28
-20.44
-25.09
-29.65
-32.80
-34.04
-33.85
-33.32
-33.40
-34.42
-35.92
-37.02
-37.00
-35.76
-33.91
-32.45
-32.30
-33.83
-36.63
-39.74
-41.88
-41.98
-39.44
-34.31
-27.21
-19.05
-10.82
-3.28
3.01
7.68
10.42
11.04
9.55
6.23
1.69
-3.34
-8.17
-12.44
-16.07
-19.17
-21.90
-24.33
-26.44
-28.24
-29.79
-31.22
-32.70
-34.35
-36.22
-38.32
-40.70
-43.44
-46.56
-50.00
-53.57
-57.00
-60.03
-62.54
-64.65
-66.65
-68.98
-72.02
-75.86
-80.24
-84.54
-87.94
-89.71
-89.42
-87.04
-82.86
-77.39
-71.14
-64.46
-57.38
-49.41
-39.44
-25.89
-7.08
18.01
49.14
84.36
120.35
153.10
178.95
195.33
201.17
196.87
183.85
164.22
140.35
114.69
89.51
66.71
47.47
32.12
20.18
10.70
2.70
-4.51
-11.12
-16.95
-21.66
-24.98
-26.81
-27.32
-26.94
-26.31
-26.20
-27.32
-29.99
-33.96
-38.39
-42.25
-44.72
-45.64
-45.48
-44.99
-44.65
-44.36
-43.55
-41.53
-38.00
-33.26
-28.06
-23.31
-19.72
-17.76
-17.71
-19.77
-23.94
-30.04
-37.48
-45.40
-52.82
-58.82
-62.52
-63.19
-60.35
-53.99
-44.74
-33.68
-21.95
-10.32
1.00
12.19
23.40
34.39
44.56
53.20
59.88
64.61
67.66
69.41
70.12
70.04
69.56
69.16
69.24
69.84
70.59
70.90
70.29
68.65
66.09
62.82
58.88
54.24
48.88
43.11
37.59
33.13
30.36
29.48
30.15
31.57
32.68
32.37
29.65
23.74
14.32
1.64
-13.30
-28.85
-42.96
-53.67
-59.67
-60.68
-57.55
-51.93
-45.66
-40.13
-35.87
-32.45
-29.00
-24.74
-19.36
-13.00
-5.92
1.80
10.26
19.58
29.57
39.53
48.42
55.28
59.74
62.30
64.02
65.97
68.71
72.07
75.14
76.67
75.68
72.06
66.72
61.20
56.58
53.61
52.52
53.10
54.39
54.64
51.22
41.38
23.08
-4.59
-39.15
-74.87
-104.61
-122.98
-128.69
-124.76
-116.79
-110.62
-111.69
-121.84
-139.49
-161.20
-183.64
-204.75
-223.40
-238.28
-247.89
-252.42
-251.43
-244.13
-230.25
-211.18
-190.23
-171.36
-157.15
-134.52
-96.04
-42.22
18.44
75.75
122.98
157.40
177.60
187.84
191.74
189.99
183.15
172.23
158.56
143.65
128.25
112.77
98.03
84.71
72.13
60.16
49.25
40.10
32.97
27.41
22.78
18.95
15.69
11.88
6.74
0.21
-6.67
-12.16
-14.50
-12.69
-6.95
0.80
7.39
10.24
8.60
3.81
-1.58
-5.20
-5.88
-3.94
-0.87
1.59
2.51
2.08
1.35
1.45
2.89
5.26
7.45
8.14
6.46
2.40
-3.21
-8.92
-13.35
-15.72
-16.20
-15.79
-15.88
-17.61
-21.32
-26.35
-31.30
-34.60
-35.04
-32.19
-26.29
-18.09
-8.45
1.75
11.71
20.68
28.00
33.16
35.94
36.41
34.94
32.03
28.30
24.34
20.75
18.04
16.54
16.32
17.12
18.43
19.61
20.10
19.50
17.61
14.36
9.83
4.22
-2.01
-8.23
-13.71
-17.98
-21.03
-23.36
-25.75
-28.81
-32.55
-36.37
-39.29
-40.47
-39.60
-36.88
-32.76
-27.51
-21.03
-13.03
-3.49
6.97
17.07
25.33
30.75
33.29
33.85
33.68
33.63
33.66
32.86
30.00
24.18
15.31
4.12
-8.23
-20.61
-32.30
-43.00
-52.60
-61.04
-68.14
-73.68
-77.47
-79.36
-79.30
-77.27
-73.28
-67.38
-59.63
-50.16
-39.30
-27.70
-16.32
-6.18
1.83
7.41
10.85
12.96
14.76
17.11
20.56
25.27
31.13
37.70
44.30
50.01
53.90
55.43
54.78
52.83
50.80
49.62
49.41
49.39
48.26
44.86
38.75
30.43
21.18
12.60
6.01
2.04
0.32
-0.37
-1.87
-6.32
-15.72
-31.60
-54.49
-83.55
-116.30
-148.97
-177.19
-197.22
-206.99
-206.78
-199.11
-187.80
-176.70
-168.37
-163.34
-159.96
-154.95
-144.38
-124.84
-94.53
-53.99
-6.07
44.67
93.27
135.80
170.18
196.47
216.10
230.83
241.79
249.16
252.43
251.25
246.03
238.04
228.86
219.69
210.79
201.56
191.19
179.33
166.53
154.04
143.15
134.54
127.90
122.10
115.70
107.65
97.63
86.15
74.19
62.80
52.64
43.94
36.61
30.40
25.23
21.21
18.65
17.86
19.04
22.03
26.35
31.11
35.15
37.14
35.80
30.20
20.07
6.11
-10.08
-26.29
-40.37
-50.93
-57.72
-61.48
-63.26
-63.63
-62.36
-58.65
-51.89
-42.36
-31.43
-21.04
-12.97
-8.10
-6.37
-7.04
-9.24
-12.40
-16.29
-20.87
-26.02
-31.40
-36.46
-40.50
-42.92
-43.32
-41.77
-38.83
-35.46
-32.67
-31.11
-30.87
-31.45
-32.15
-32.46
-32.30
-32.06
-32.35
-33.63
-36.00
-39.16
-42.52
-45.43
-47.37
-48.09
-47.63
-46.23
-44.31
-42.27
-40.47
-39.05
-38.00
-37.10
-36.05
-34.63
-32.91
-31.41
-31.04
-32.69
-36.73
-42.56
-48.61
-52.86
-53.69
-50.57
-44.29
-36.48
-28.84
-22.44
-17.50
-13.65
-10.56
-8.21
-6.98
-7.26
-9.17
-12.35
-16.09
-19.58
-22.15
-23.52
-23.75
-23.18
-22.26
-21.35
-20.60
-19.90
-19.07
-18.01
-16.93
-16.25
-16.52
-18.13
-21.14
-25.25
-29.98
-34.78
-39.08
-42.28
-43.73
-42.75
-38.90
-32.18
-23.14
-12.79
-2.38
7.02
14.68
20.32
23.92
25.59
25.44
23.55
20.12
15.55
10.50
5.75
1.98
-0.41
-1.49
-1.64
-1.37
-1.08
-0.91
-0.81
-0.67
-0.47
-0.43
-0.89
-2.27
-4.84
-8.77
-13.97
-20.14
-26.65
-32.56
-36.75
-38.17
-36.17
-30.72
-22.43
-12.38
-1.64
8.89
18.65
27.36
34.71
40.31
43.72
44.62
43.07
39.55
34.95
30.27
26.39
23.83
22.60
22.35
22.47
22.34
21.52
19.87
17.51
14.75
11.90
9.16
6.52
3.78
0.64
-3.19
-7.86
-13.29
-18.98
-24.12
-27.63
-28.49
-26.06
-20.29
-11.84
-1.85
8.38
17.74
25.42
31.08
34.59
35.99
35.41
33.05
29.24
24.46
19.34
14.51
10.49
7.63
6.01
5.47
5.68
6.27
6.88
7.30
7.43
7.25
6.78
5.94
4.59
2.55
-0.35
-4.23
-9.04
-14.53
-20.15
-25.06
-28.25
-28.77
-26.03
-20.02
-11.36
-1.18
9.19
18.55
26.06
31.31
34.30
35.19
34.29
31.90
28.33
23.95
19.20
14.62
10.70
7.86
6.25
5.72
5.90
6.28
6.45
6.17
5.47
4.52
3.51
2.50
1.37
-0.10
-2.15
-4.97
-8.63
-13.12
-18.28
-23.70
-28.67
-32.14
-32.99
-30.37
-24.09
-14.77
-3.75
7.35
17.09
24.56
29.47
31.98
32.45
31.27
28.80
25.39
21.47
17.49
13.86
10.90
8.75
7.43
6.81
6.75
7.03
7.45
7.81
7.91
7.65
6.95
5.77
4.11
1.98
-0.62
-3.66
-7.09
-10.89
-15.04
-19.53
-24.15
-28.44
-31.62
-32.71
-30.88
-25.78
-17.81
-7.96
2.35
11.86
19.67
25.41
29.05
30.77
30.70
29.04
26.11
22.35
18.36
14.71
11.82
9.87
8.79
8.39
8.38
8.55
8.71
8.82
8.84
8.76
8.51
7.96
6.92
5.24
2.90
-0.00
-3.21
-6.46
-9.53
-12.37
-15.06
-17.81
-20.85
-24.35
-28.27
-32.24
-35.57
-37.34
-36.67
-33.04
-26.51
-17.80
-8.03
1.57
10.03
16.78
21.67
24.77
26.23
26.21
24.91
22.58
19.58
16.38
13.39
10.96
9.29
8.39
8.15
8.38
8.91
9.60
10.39
11.20
11.90
12.28
12.11
11.23
9.62
7.47
5.06
2.65
0.41
-1.72
-3.89
-6.25
-8.85
-11.56
-14.12
-16.34
-18.17
-19.73
-21.33
-23.30
-25.93
-29.33
-33.32
-37.39
-40.74
-42.38
-41.47
-37.56
-30.79
-21.95
-12.17
-2.63
5.76
12.51
17.48
20.75
22.42
22.63
21.56
19.48
16.80
13.98
11.43
9.48
8.27
7.79
7.92
8.46
9.26
10.20
11.21
12.22
13.09
13.65
13.69
13.06
11.73
9.81
7.55
5.21
3.02
1.11
-0.52
-1.96
-3.42
-5.09
-7.12
-9.49
-12.06
-14.55
-16.70
-18.40
-19.72
-20.93
-22.35
-24.29
-26.93
-30.25
-33.98
-37.61
-40.44
-41.66
-40.58
-36.81
-30.43
-22.05
-12.65
-3.35
4.92
11.55
16.34
19.39
20.90
21.10
20.18
18.33
15.81
13.00
10.31
8.09
6.59
5.87
5.89
6.52
7.59
8.92
10.29
11.50
12.36
12.72
12.52
11.75
10.50
8.87
6.98
4.89
2.64
0.17
-2.54
-5.46
-8.43
-11.22
-13.60
-15.43
-16.81
-17.97
-19.28
-21.05
-23.51
-26.65
-30.25
-33.87
-36.82
-38.33
-37.65
-34.31
-28.34
-20.26
-11.04
-1.79
6.52
13.27
18.26
21.56
23.38
23.87
23.13
21.26
18.50
15.22
11.94
9.15
7.23
6.31
6.34
7.08
8.28
9.70
11.19
12.64
13.93
14.90
15.33
15.04
13.92
12.05
9.70
7.24
5.01
3.23
1.86
0.64
-0.79
-2.73
-5.24
-8.19
-11.25
-14.08
-16.45
-18.35
-19.98
-21.64
-23.70
-26.37
-29.79
-33.86
-38.30
-42.55
-45.91
-47.54
-46.70
-42.96
-36.36
-27.50
-17.38
-7.15
2.20
9.97
15.90
20.00
22.39
23.29
22.86
21.34
19.03
16.33
13.63
11.32
9.68
8.82
8.74
9.33
10.39
11.74
13.18
14.54
15.67
16.42
16.64
16.24
15.22
13.67
11.82
9.84
7.87
5.87
3.71
1.24
-1.64
-4.89
-8.36
-11.81
-15.06
-17.98
-20.62
-23.14
-25.80
-28.83
-32.34
-36.18
-39.87
-42.66
-43.64
-42.08
-37.60
-30.40
-21.20
-11.03
-1.00
8.01
15.48
21.20
25.15
27.41
28.09
27.37
25.55
23.01
20.18
17.44
15.04
13.10
11.65
10.73
10.35
10.55
11.30
12.49
13.92
15.35
16.52
17.24
17.36
16.83
15.65
13.88
11.62
8.98
6.04
2.87
-0.42
-3.75
-7.02
-10.15
-13.18
-16.21
-19.45
-23.11
-27.33
-31.99
-36.71
-40.77
-43.26
-43.33
-40.40
-34.38
-25.78
-15.56
-4.89
5.12
13.66
20.31
25.03
28.00
29.43
29.54
28.48
26.41
23.54
20.19
16.79
13.72
11.31
9.69
8.84
8.60
8.83
9.42
10.30
11.40
12.57
13.55
14.03
13.73
12.51
10.43
7.68
4.59
1.46
-1.48
-4.17
-6.69
-9.19
-11.91
-15.06
-18.76
-22.98
-27.39
-31.42
-34.27
-35.12
-33.29
-28.56
-21.21
-11.92
-1.68
8.51
17.79
25.57
31.50
35.48
37.61
38.15
37.46
35.92
33.87
31.62
29.39
27.45
25.99
25.23
25.27
26.17
27.88
30.35
33.43
36.90
40.36
43.27
45.00
45.01
42.95
38.81
32.93
25.93
18.52
11.35
4.79
-1.13
-6.73
-12.44
-18.60
-25.20
-31.71
-37.24
-40.72
-41.32
-38.65
-32.96
-25.05
-15.98
-6.79
1.69
8.90
14.48
18.17
19.80
19.33
16.99
13.32
9.07
4.93
1.41
-1.32
-3.37
-4.89
-5.99
-6.60
-6.56
-5.76
-4.25
-2.30
-0.34
1.12
1.70
1.19
-0.36
-2.70
-5.45
-8.29
-11.05
-13.71
-16.49
-19.63
-23.40
-27.95
-33.20
-38.78
-43.97
-47.79
-49.22
-47.53
-42.51
-34.59
-24.75
-14.17
-3.96
5.12
12.68
18.57
22.72
25.07
25.60
24.41
21.80
18.23
14.26
10.41
7.09
4.55
2.85
1.97
1.78
2.15
2.95
4.08
5.39
6.65
7.52
7.61
6.66
4.59
1.63
-1.79
-5.20
-8.34
-11.21
-14.08
-17.36
-21.43
-26.48
-32.36
-38.51
-43.99
-47.66
-48.43
-45.64
-39.22
-29.79
-18.47
-6.53
4.84
14.77
22.73
28.42
31.75
32.79
31.82
29.26
25.66
21.57
17.44
13.63
10.39
7.86
6.10
5.11
4.82
5.17
6.06
7.40
8.97
10.42
11.29
11.12
9.66
6.98
3.45
-0.42
-4.19
-7.69
-11.07
-14.72
-19.07
-24.41
-30.69
-37.47
-43.83
-48.59
-50.54
-48.79
-43.05
-33.78
-22.05
-9.27
3.17
14.17
23.12
29.76
34.12
36.28
36.38
34.61
31.30
26.99
22.34
17.97
14.33
11.60
9.71
8.53
7.96
8.00
8.68
9.94
11.48
12.84
13.53
13.14
11.52
8.82
5.40
1.67
-2.00
-5.46
-8.81
-12.33
-16.42
-21.41
-27.43
-34.28
-41.30
-47.49
-51.55
-52.34
-49.11
-41.82
-31.21
-18.58
-5.44
6.91
17.57
26.08
32.31
36.23
37.88
37.35
34.89
30.95
26.13
21.08
16.34
12.26
9.01
6.65
5.23
4.80
5.40
6.90
8.99
11.13
12.69
13.12
12.16
9.87
6.61
2.87
-0.89
-4.38
-7.55
-10.60
-13.89
-17.87
-22.90
-29.09
-36.10
-43.04
-48.56
-51.16
-49.62
-43.47
-33.18
-20.05
-5.85
7.72
19.40
28.54
35.00
38.89
40.40
39.69
37.04
32.85
27.71
22.31
17.25
12.95
9.65
7.40
6.20
6.06
6.92
8.56
10.62
12.53
13.67
13.56
12.00
9.14
5.45
1.48
-2.33
-5.78
-9.05
-12.54
-16.79
-22.21
-28.91
-36.50
-44.08
-50.35
-53.87
-53.44
-48.48
-39.20
-26.62
-12.26
2.19
15.30
26.15
34.34
39.85
42.82
43.37
41.68
38.01
32.89
27.08
21.41
16.60
13.03
10.72
9.45
8.96
9.15
9.99
11.46
13.35
15.18
16.30
16.10
14.24
10.75
6.05
0.79
-4.38
-8.96
-12.84
-16.24
-19.73
-24.01
-29.62
-36.68
-44.63
-52.26
-57.90
-59.90
-57.14
-49.45
-37.64
-23.26
-8.08
6.39
19.08
29.48
37.35
42.53
44.91
44.47
41.47
36.53
30.57
24.63
19.57
15.86
13.57
12.44
12.13
12.37
13.05
14.15
15.60
17.18
18.42
18.77
17.74
15.15
11.18
6.33
1.20
-3.72
-8.25
-12.51
-16.86
-21.72
-27.47
-34.30
-42.10
-50.32
-57.90
-63.39
-65.24
-62.25
-54.06
-41.34
-25.65
-8.93
7.02
20.92
32.15
40.48
45.93
48.55
48.42
45.82
41.29
35.64
29.77
24.55
20.56
18.05
16.96
17.01
17.86
19.16
20.64
22.04
23.15
23.71
23.49
22.28
19.96
16.52
12.15
7.15
1.90
-3.19
-7.91
-12.25
-16.46
-20.99
-26.33
-32.81
-40.36
-48.44
-55.94
-61.41
-63.35
-60.66
-52.97
-40.85
-25.67
-9.23
6.68
20.66
31.92
40.12
45.25
47.48
47.04
44.35
39.97
34.67
29.23
24.35
20.47
17.75
16.09
15.32
15.27
15.88
17.18
19.13
21.51
23.84
25.50
25.88
24.58
21.56
17.09
11.71
5.94
0.20
-5.30
-10.59
-15.91
-21.61
-28.01
-35.17
-42.78
-49.99
-55.58
-58.18
-56.65
-50.43
-39.71
-25.54
-9.52
6.47
20.76
32.20
40.30
45.11
47.00
46.39
43.65
39.16
33.42
27.16
21.17
16.11
12.32
9.75
8.11
7.14
6.73
6.98
7.97
9.58
11.34
12.51
12.34
10.32
6.39
0.98
-5.19
-11.35
-16.95
-21.76
-25.95
-29.91
-34.17
-39.21
-45.30
-52.31
-59.63
-66.12
-70.29
-70.70
-66.41
-57.34
-44.32
-28.85
-12.72
2.53
15.73
26.26
33.83
38.43
40.28
39.77
37.48
34.05
30.13
26.25
22.77
19.96
17.98
16.95
16.90
17.78
19.37
21.37
23.36
24.84
25.34
24.45
21.97
17.95
12.77
7.01
1.29
-3.94
-8.52
-12.71
-17.06
-22.23
-28.72
-36.52
-44.95
-52.72
-58.14
-59.67
-56.30
-47.99
-35.60
-20.72
-5.16
9.44
21.88
31.49
38.01
41.51
42.25
40.67
37.34
32.87
27.88
22.87
18.25
14.30
11.23
9.17
8.17
8.18
9.01
10.37
11.86
13.01
13.32
12.41
10.14
6.67
2.46
-1.96
-6.21
-10.24
-14.40
-19.25
-25.31
-32.68
-40.93
-49.01
-55.52
-58.97
-58.26
-52.94
-43.40
-30.74
-16.55
-2.45
10.24
20.72
28.71
34.32
37.85
39.51
39.45
37.72
34.43
29.87
24.57
19.28
14.73
11.49
9.76
9.40
9.97
10.99
12.00
12.64
12.65
11.82
10.06
7.36
3.88
-0.14
-4.46
-8.99
-13.92
-19.59
-26.34
-34.14
-42.34
-49.68
-54.55
-55.45
-51.53
-42.89
-30.55
-16.18
-1.57
11.74
22.73
30.93
36.27
38.90
39.05
37.03
33.19
28.02
22.14
16.28
11.13
7.25
4.90
4.00
4.18
4.93
5.72
6.16
6.07
5.42
4.26
2.61
0.45
-2.33
-5.82
-10.09
-15.19
-21.15
-27.94
-35.32
-42.67
-48.94
-52.76
-52.80
-48.30
-39.34
-26.91
-12.64
1.68
14.59
25.15
32.96
37.98
40.38
40.35
38.14
34.11
28.78
22.89
17.23
12.55
9.32
7.63
7.19
7.52
8.06
8.44
8.50
8.21
7.62
6.71
5.35
3.33
0.42
-3.62
-8.94
-15.55
-23.18
-31.15
-38.37
-43.47
-45.12
-42.39
-35.18
-24.25
-11.02
2.81
15.74
26.78
35.46
41.70
45.54
47.01
46.16
43.15
38.42
32.68
26.77
21.49
17.39
14.64
13.03
12.17
11.61
11.02
10.22
9.17
7.89
6.30
4.23
1.43
-2.31
-7.08
-12.86
-19.51
-26.78
-34.32
-41.52
-47.50
-51.14
-51.37
-47.52
-39.65
-28.58
-15.66
-2.43
9.84
20.28
28.48
34.25
37.57
38.48
37.08
33.69
28.81
23.14
17.45
12.44
8.64
6.28
5.27
5.19
5.50
5.67
5.38
4.53
3.17
1.43
-0.65
-3.17
-6.30
-10.18
-14.94
-20.63
-27.15
-34.16
-40.95
-46.43
-49.27
-48.34
-43.05
-33.70
-21.42
-7.86
5.36
17.01
26.40
33.32
37.82
39.99
39.96
37.90
34.13
29.15
23.58
18.14
13.47
10.06
8.15
7.62
8.08
8.92
9.51
9.39
8.40
6.64
4.36
1.80
-0.94
-3.93
-7.40
-11.61
-16.78
-23.00
-30.11
-37.56
-44.33
-49.10
-50.45
-47.40
-39.77
-28.31
-14.54
-0.28
12.91
23.96
32.42
38.18
41.32
41.97
40.38
37.02
32.58
27.80
23.32
19.49
16.43
14.11
12.50
11.58
11.34
11.68
12.34
12.94
13.04
12.32
10.57
7.75
3.95
-0.61
-5.61
-10.68
-15.52
-20.05
-24.51
-29.33
-34.95
-41.49
-48.42
-54.59
-58.46
-58.59
-54.15
-45.23
-32.81
-18.43
-3.75
9.85
21.43
30.51
36.94
40.70
41.90
40.81
37.85
33.70
29.07
24.64
20.89
18.03
16.05
14.82
14.17
14.00
14.25
14.86
15.72
16.55
16.98
16.59
15.05
12.23
8.29
3.60
-1.36
-6.17
-10.62
-14.71
-18.70
-22.96
-27.92
-33.83
-40.61
-47.69
-53.94
-57.92
-58.24
-54.04
-45.34
-33.08
-18.85
-4.39
8.84
19.94
28.51
34.50
38.01
39.19
38.28
35.65
31.86
27.52
23.26
19.55
16.73
14.92
14.10
14.11
14.67
15.42
16.07
16.41
16.41
16.14
15.62
14.79
13.41
11.26
8.20
4.29
-0.17
-4.78
-9.16
-13.14
-16.75
-20.21
-23.83
-27.93
-32.73
-38.31
-44.44
-50.58
-55.79
-58.91
-58.79
-54.71
-46.64
-35.32
-22.10
-8.57
3.86
14.25
22.19
27.65
30.81
31.86
31.00
28.55
24.97
20.86
16.91
13.69
11.56
10.61
10.68
11.46
12.61
13.89
15.13
16.27
17.28
18.10
18.57
18.46
17.47
15.37
12.10
7.84
2.94
-2.16
-7.08
-11.64
-15.90
-20.17
-24.86
-30.28
-36.48
-43.06
-49.19
-53.70
-55.46
-53.63
-47.97
-38.90
-27.42
-14.85
-2.51
8.53
17.57
24.28
28.58
30.55
30.36
28.27
24.64
20.02
15.11
10.68
7.40
5.62
5.35
6.18
7.54
8.90
9.93
10.55
10.87
10.97
10.80
10.09
8.53
5.89
2.20
-2.21
-6.83
-11.17
-14.93
-18.10
-20.93
-23.80
-27.05
-30.95
-35.58
-40.86
-46.36
-51.32
-54.64
-55.15
-52.00
-44.93
-34.49
-21.87
-8.53
4.17
15.31
24.36
31.17
35.71
38.03
38.20
36.45
33.15
28.82
24.08
19.55
15.71
12.82
10.90
9.76
9.16
8.89
8.93
9.31
10.05
11.00
11.72
11.63
10.19
7.25
3.04
-1.79
-6.48
-10.51
-13.72
-16.37
-18.97
-22.10
-26.20
-31.44
-37.70
-44.43
-50.69
-55.27
-56.91
-54.70
-48.39
-38.53
-26.31
-13.22
-0.61
10.53
19.72
26.76
31.62
34.33
34.90
33.48
30.40
26.19
21.51
16.99
13.13
10.22
8.36
7.47
7.41
8.00
9.05
10.33
11.59
12.53
12.83
12.22
10.52
7.76
4.19
0.19
-3.82
-7.62
-11.24
-14.94
-19.18
-24.35
-30.62
-37.76
-45.13
-51.69
-56.21
-57.52
-54.91
-48.29
-38.31
-26.16
-13.27
-0.95
9.87
18.68
25.28
29.64
31.84
32.00
30.34
27.26
23.22
18.75
14.35
10.46
7.43
5.45
4.61
4.79
5.74
7.09
8.41
9.30
9.40
8.52
6.64
3.93
0.68
-2.73
-6.02
-9.11
-12.14
-15.48
-19.57
-24.73
-30.90
-37.51
-43.47
-47.40
-47.98
-44.44
-36.73
-25.67
-12.69
0.59
12.75
22.78
30.19
34.87
36.96
36.76
34.67
31.16
26.76
22.01
17.37
13.24
9.94
7.68
6.52
6.36
6.91
7.72
8.33
8.41
7.85
6.72
5.20
3.37
1.24
-1.32
-4.46
-8.29
-12.86
-18.15
-23.97
-29.90
-35.18
-38.73
-39.40
-36.38
-29.47
-19.28
-7.08
5.58
17.25
26.89
33.97
38.41
40.41
40.33
38.52
35.30
30.97
25.91
20.55
15.48
11.32
8.53
7.28
7.32
8.12
9.06
9.64
9.63
9.04
8.04
6.77
5.22
3.28
0.73
-2.62
-6.87
-12.04
-18.00
-24.39
-30.55
-35.48
-38.04
-37.17
-32.36
-23.79
-12.44
0.17
12.46
23.09
31.31
36.90
40.02
41.02
40.24
37.93
34.36
29.84
24.86
20.02
15.95
13.15
11.80
11.71
12.35
13.10
13.45
13.18
12.35
11.18
9.85
8.41
6.76
4.71
2.12
-1.15
-5.15
-9.93
-15.42
-21.31
-26.95
-31.31
-33.25
-31.85
-26.77
-18.43
-7.92
3.38
14.16
23.53
31.08
36.78
40.69
42.82
43.04
41.23
37.50
32.39
26.76
21.67
17.97
15.99
15.53
15.91
16.40
16.47
15.99
15.15
14.25
13.51
12.93
12.30
11.30
9.61
7.07
3.74
-0.02
-3.64
-6.51
-8.15
-8.38
-7.39
-5.77
-4.42
-4.41
-6.68
-11.66
-18.94
-27.13
-34.17
-37.93
-37.11
-31.74
-23.18
-13.51
-4.64
2.38
7.52
11.33
14.35
16.65
17.84
17.45
15.38
12.15
8.73
6.15
4.95
5.01
5.63
5.92
5.30
3.74
1.71
-0.15
-1.46
-2.29
-3.16
-4.73
-7.47
-11.47
-16.42
-21.82
-27.15
-31.97
-35.80
-38.08
-38.18
-35.60
-30.24
-22.53
-13.42
-4.07
4.42
11.30
16.22
19.16
20.26
19.78
17.99
15.25
11.95
8.54
5.44
2.98
1.30
0.42
0.17
0.36
0.86
1.54
2.36
3.25
4.05
4.53
4.44
3.56
1.86
-0.53
-3.37
-6.35
-9.29
-12.12
-14.97
-18.05
-21.51
-25.28
-28.93
-31.72
-32.76
-31.29
-27.02
-20.23
-11.75
-2.71
5.78
12.90
18.24
21.69
23.34
23.36
21.91
19.27
15.83
12.10
8.58
5.68
3.56
2.22
1.50
1.28
1.47
2.09
3.14
4.47
5.75
6.49
6.25
4.78
2.18
-1.10
-4.45
-7.34
-9.53
-11.15
-12.66
-14.60
-17.43
-21.30
-25.98
-30.84
-34.93
-37.17
-36.66
-32.98
-26.37
-17.69
-8.17
0.94
8.70
14.66
18.74
21.14
22.09
21.80
20.44
18.24
15.46
12.50
9.75
7.58
6.21
5.71
5.90
6.54
7.29
7.92
8.31
8.45
8.39
8.14
7.63
6.70
5.24
3.19
0.63
-2.23
-5.09
-7.74
-10.03
-12.00
-13.79
-15.61
-17.67
-20.12
-23.06
-26.45
-30.04
-33.36
-35.70
-36.26
-34.36
-29.69
-22.51
-13.59
-4.06
4.89
12.34
17.79
21.16
22.71
22.83
21.89
20.16
17.84
15.13
12.27
9.63
7.57
6.37
6.13
6.73
7.90
9.30
10.63
11.68
12.32
12.46
12.04
11.00
9.37
7.24
4.80
2.26
-0.22
-2.51
-4.64
-6.67
-8.69
-10.81
-13.08
-15.50
-18.05
-20.67
-23.37
-26.14
-28.93
-31.55
-33.58
-34.40
-33.38
-30.08
-24.44
-16.96
-8.48
-0.02
7.52
13.58
17.94
20.63
21.76
21.52
20.11
17.83
15.08
12.28
9.83
7.99
6.85
6.39
6.51
7.06
7.88
8.84
9.82
10.70
11.37
11.69
11.52
10.76
9.37
7.47
5.29
3.07
1.00
-0.90
-2.74
-4.70
-6.87
-9.22
-11.55
-13.67
-15.46
-16.91
-18.21
-19.67
-21.54
-23.96
-26.72
-29.33
-31.08
-31.27
-29.40
-25.40
-19.60
-12.61
-5.20
1.92
8.21
13.30
17.00
19.26
20.11
19.68
18.13
15.69
12.61
9.23
5.92
3.11
1.15
0.25
0.43
1.50
3.11
4.86
6.38
7.46
8.00
8.06
7.77
7.19
6.29
4.98
3.16
0.81
-1.91
-4.73
-7.32
-9.47
-11.16
-12.56
-13.96
-15.61
-17.71
-20.35
-23.44
-26.77
-29.88
-32.19
-32.98
-31.67
-28.00
-22.12
-14.60
-6.35
1.68
8.68
14.11
17.79
19.79
20.38
19.86
18.52
16.56
14.16
11.52
8.86
6.47
4.62
3.49
3.17
3.57
4.51
5.75
7.03
8.07
8.70
8.84
8.52
7.84
6.90
5.73
4.23
2.31
-0.09
-2.86
-5.76
-8.55
-11.05
-13.27
-15.31
-17.38
-19.55
-21.90
-24.50
-27.42
-30.67
-34.10
-37.24
-39.33
-39.55
-37.27
-32.35
-25.16
-16.52
-7.41
1.25
8.75
14.70
18.91
21.42
22.36
21.97
20.55
18.42
15.86
13.20
10.70
8.58
6.99
5.98
5.57
5.71
6.34
7.37
8.63
9.88
10.87
11.38
11.30
10.66
9.60
8.24
6.64
4.79
2.65
0.19
-2.55
-5.49
-8.48
-11.43
-14.25
-16.94
-19.57
-22.36
-25.51
-29.13
-33.07
-36.82
-39.58
-40.44
-38.71
-34.12
-26.94
-17.94
-8.14
1.43
9.93
16.87
22.04
25.51
27.41
27.87
27.00
24.96
21.94
18.35
14.68
11.46
9.12
7.82
7.55
8.07
9.13
10.47
11.89
13.25
14.37
15.12
15.33
14.90
13.77
11.94
9.49
6.58
3.37
0.07
-3.19
-6.30
-9.25
-12.06
-14.87
-17.87
-21.27
-25.18
-29.48
-33.76
-37.27
-39.14
-38.58
-35.18
-29.05
-20.83
-11.43
-1.80
7.25
15.18
21.66
26.49
29.51
30.66
30.02
27.84
24.55
20.72
16.87
13.47
10.80
8.98
8.02
7.82
8.23
9.06
10.15
11.32
12.41
13.22
13.55
13.19
12.00
9.96
7.20
3.95
0.53
-2.79
-5.87
-8.74
-11.51
-14.41
-17.66
-21.43
-25.79
-30.60
-35.50
-39.82
-42.67
-43.15
-40.62
-34.93
-26.57
-16.47
-5.80
4.39
13.38
20.80
26.55
30.61
32.93
33.49
32.33
29.72
26.12
22.09
18.18
14.82
12.23
10.46
9.50
9.29
9.74
10.69
11.94
13.22
14.28
14.87
14.80
13.97
12.30
9.85
6.79
3.41
0.00
-3.26
-6.37
-9.50
-12.91
-16.85
-21.48
-26.81
-32.70
-38.71
-44.06
-47.69
-48.49
-45.61
-38.89
-28.93
-16.99
-4.55
7.06
16.98
24.83
30.56
34.24
35.92
35.68
33.71
30.38
26.23
21.91
17.98
14.85
12.68
11.43
10.97
11.12
11.73
12.70
13.95
15.36
16.74
17.84
18.28
17.75
16.04
13.15
9.36
5.12
0.91
-2.90
-6.20
-9.21
-12.32
-16.01
-20.62
-26.26
-32.67
-39.17
-44.76
-48.30
-48.77
-45.59
-38.80
-29.04
-17.37
-5.05
6.78
17.24
25.74
31.97
35.81
37.34
36.75
34.40
30.80
26.53
22.18
18.29
15.24
13.22
12.23
12.12
12.66
13.59
14.71
15.87
16.99
17.92
18.48
18.38
17.32
15.13
11.90
7.93
3.72
-0.27
-3.85
-7.12
-10.47
-14.31
-18.95
-24.42
-30.46
-36.52
-41.80
-45.37
-46.31
-43.93
-38.04
-29.07
-18.00
-6.11
5.33
15.36
23.37
29.12
32.57
33.83
33.10
30.74
27.26
23.23
19.19
15.56
12.61
10.47
9.19
8.76
9.13
10.17
11.71
13.44
14.97
15.92
15.96
14.93
12.87
10.03
6.72
3.27
-0.11
-3.36
-6.60
-10.09
-14.17
-19.05
-24.74
-30.83
-36.52
-40.66
-42.14
-40.13
-34.47
-25.66
-14.78
-3.18
7.85
17.33
24.73
29.94
33.03
34.20
33.61
31.43
27.89
23.43
18.63
14.16
10.56
8.13
6.86
6.53
6.87
7.68
8.83
10.22
11.61
12.61
12.75
11.69
9.36
5.99
2.07
-1.89
-5.54
-8.81
-11.93
-15.30
-19.43
-24.65
-30.97
-37.98
-44.79
-50.13
-52.70
-51.47
-46.08
-36.97
-25.27
-12.51
-0.16
10.65
19.31
25.66
29.77
31.81
31.93
30.34
27.40
23.59
19.49
15.67
12.52
10.24
8.88
8.36
8.59
9.45
10.81
12.47
14.13
15.41
15.92
15.33
13.51
10.53
6.70
2.48
-1.65
-5.39
-8.71
-11.85
-15.26
-19.44
-24.70
-31.01
-37.88
-44.34
-49.17
-51.09
-49.22
-43.32
-33.91
-22.12
-9.41
2.84
13.57
22.17
28.45
32.44
34.31
34.24
32.50
29.42
25.50
21.36
17.69
15.10
13.89
14.03
15.15
16.68
18.13
19.25
20.04
20.65
21.13
21.30
20.80
19.24
16.45
12.59
8.11
3.57
-0.60
-4.25
-7.58
-10.95
-14.75
-19.21
-24.37
-30.08
-36.02
-41.76
-46.60
-49.72
-50.16
-47.21
-40.58
-30.69
-18.61
-5.81
6.29
16.60
24.65
30.39
34.01
35.73
35.66
33.92
30.80
26.86
22.85
19.55
17.54
17.01
17.72
19.26
21.08
22.79
24.11
24.90
25.15
24.90
24.22
23.14
21.66
19.71
17.22
14.11
10.42
6.31
2.03
-2.17
-6.05
-9.50
-12.55
-15.38
-18.26
-21.51
-25.43
-30.12
-35.34
-40.49
-44.56
-46.41
-45.05
-39.99
-31.50
-20.56
-8.63
2.81
12.64
20.31
25.77
29.23
30.89
30.84
29.20
26.20
22.36
18.36
14.93
12.56
11.44
11.46
12.34
13.75
15.43
17.14
18.66
19.79
20.33
20.12
19.11
17.26
14.66
11.45
7.88
4.23
0.77
-2.28
-4.95
-7.37
-9.81
-12.53
-15.72
-19.47
-23.78
-28.52
-33.40
-37.90
-41.25
-42.62
-41.29
-36.96
-29.85
-20.70
-10.53
-0.42
8.73
16.30
21.98
25.64
27.36
27.32
25.82
23.25
20.08
16.79
13.85
11.58
10.12
9.48
9.52
10.12
11.14
12.47
13.99
15.45
16.54
16.93
16.40
14.93
12.73
10.13
7.44
4.85
2.30
-0.34
-3.29
-6.61
-10.27
-14.06
-17.70
-21.00
-23.90
-26.54
-29.20
-32.22
-35.84
-40.09
-44.62
-48.77
-51.65
-52.30
-50.01
-44.46
-35.98
-25.39
-13.87
-2.67
7.17
15.05
20.75
24.38
26.18
26.44
25.43
23.43
20.78
17.88
15.15
12.96
11.60
11.18
11.68
12.97
14.79
16.85
18.82
20.38
21.29
21.38
20.58
18.96
16.65
13.87
10.86
7.82
4.87
1.99
-0.88
-3.86
-7.01
-10.31
-13.65
-16.88
-19.91
-22.75
-25.53
-28.52
-31.97
-36.07
-40.70
-45.40
-49.35
-51.52
-50.99
-47.23
-40.34
-31.01
-20.29
-9.33
0.92
9.80
16.97
22.27
25.61
27.00
26.58
24.72
21.98
19.02
16.41
14.54
13.54
13.35
13.80
14.77
16.12
17.76
19.51
21.16
22.45
23.16
23.14
22.32
20.73
18.51
15.92
13.22
10.65
8.26
5.89
3.25
0.07
-3.69
-7.79
-11.81
-15.36
-18.24
-20.62
-22.89
-25.58
-29.08
-33.56
-38.85
-44.42
-49.43
-52.82
-53.59
-51.01
-44.92
-35.77
-24.55
-12.52
-0.92
9.29
17.55
23.62
27.49
29.29
29.21
27.56
24.78
21.48
18.31
15.86
14.44
14.10
14.62
15.72
17.12
18.65
20.21
21.73
23.08
24.10
24.59
24.39
23.41
21.71
19.43
16.80
13.99
11.14
8.23
5.20
1.98
-1.40
-4.84
-8.20
-11.42
-14.58
-17.84
-21.44
-25.57
-30.31
-35.55
-40.96
-45.91
-49.53
-50.87
-49.14
-43.98
-35.62
-24.90
-13.01
-1.26
9.29
17.95
24.36
28.49
30.47
30.53
29.01
26.34
23.11
19.88
17.19
15.38
14.60
14.75
15.64
17.05
18.78
20.71
22.70
24.61
26.23
27.29
27.60
27.03
25.61
23.48
20.87
18.03
15.09
12.10
8.98
5.58
1.80
-2.39
-6.91
-11.58
-16.22
-20.70
-24.97
-29.15
-33.44
-38.09
-43.32
-49.12
-55.12
-60.49
-64.09
-64.72
-61.52
-54.30
-43.68
-30.90
-17.44
-4.69
6.41
15.36
22.02
26.48
28.86
29.42
28.45
26.41
23.82
21.20
18.95
17.36
16.49
16.34
16.87
18.02
19.71
21.81
24.06
26.10
27.56
28.15
27.76
26.47
24.44
21.88
18.91
15.61
11.99
8.09
3.98
-0.25
-4.52
-8.80
-13.07
-17.36
-21.70
-26.15
-30.79
-35.75
-41.16
-47.05
-53.12
-58.69
-62.73
-64.08
-61.81
-55.58
-45.76
-33.41
-19.95
-6.78
5.00
14.73
22.20
27.49
30.84
32.44
32.51
31.25
28.96
26.05
22.99
20.29
18.31
17.25
17.09
17.71
18.91
20.52
22.33
24.04
25.36
25.95
25.64
24.42
22.46
20.00
17.23
14.16
10.68
6.66
2.02
-3.11
-8.43
-13.61
-18.37
-22.69
-26.75
-30.90
-35.47
-40.65
-46.34
-52.21
-57.64
-61.79
-63.76
-62.67
-57.94
-49.54
-38.06
-24.69
-10.89
2.01
13.05
21.80
28.24
32.48
34.64
34.77
33.02
29.75
25.63
21.48
18.10
15.96
15.13
15.37
16.27
17.50
18.84
20.22
21.56
22.72
23.46
23.48
22.61
20.77
18.03
14.51
10.40
5.87
1.09
-3.75
-8.51
-13.10
-17.53
-21.95
-26.58
-31.60
-37.11
-42.99
-48.86
-54.05
-57.62
-58.55
-55.99
-49.54
-39.47
-26.75
-12.84
0.72
12.73
22.50
29.82
34.80
37.59
38.31
37.10
34.26
30.35
26.11
22.27
19.37
17.59
16.86
16.90
17.44
18.24
19.14
20.06
20.85
21.34
21.31
20.53
18.80
16.01
12.20
7.50
2.20
-3.38
-8.86
-14.01
-18.72
-23.07
-27.37
-31.96
-37.17
-43.14
-49.64
-56.06
-61.43
-64.61
-64.48
-60.34
-52.06
-40.26
-26.16
-11.29
2.84
15.15
25.05
32.46
37.51
40.41
41.28
40.25
37.53
33.58
29.09
24.80
21.38
19.21
18.32
18.51
19.41
20.65
21.92
23.01
23.77
24.05
23.67
22.42
20.16
16.85
12.63
7.72
2.45
-2.96
-8.33
-13.62
-18.85
-24.13
-29.56
-35.27
-41.37
-47.92
-54.78
-61.47
-67.12
-70.56
-70.54
-66.16
-57.20
-44.32
-28.96
-12.89
2.23
15.27
25.73
33.59
39.01
42.10
42.88
41.43
38.14
33.71
29.06
25.09
22.42
21.23
21.35
22.39
23.92
25.59
27.16
28.44
29.28
29.50
28.88
27.26
24.56
20.78
16.06
10.63
4.80
-1.13
-6.85
-12.19
-17.12
-21.77
-26.45
-31.48
-37.16
-43.55
-50.48
-57.41
-63.48
-67.54
-68.33
-64.88
-56.79
-44.50
-29.32
-13.02
2.61
16.25
27.27
35.55
41.28
44.61
45.65
44.60
41.83
37.99
33.85
30.14
27.35
25.69
25.15
25.56
26.67
28.21
29.86
31.31
32.28
32.55
32.02
30.67
28.50
25.49
21.65
17.02
11.72
5.97
0.08
-5.65
-11.02
-16.00
-20.72
-25.46
-30.48
-35.96
-41.93
-48.23
-54.44
-59.87
-63.53
-64.31
-61.21
-53.74
-42.13
-27.45
-11.35
4.39
18.31
29.55
37.82
43.22
45.97
46.26
44.28
40.41
35.31
29.89
25.11
21.73
20.04
19.89
20.83
22.33
23.94
25.42
26.63
27.43
27.66
27.10
25.52
22.79
18.96
14.18
8.76
3.03
-2.70
-8.15
-13.20
-17.86
-22.33
-26.96
-32.14
-38.18
-45.10
-52.43
-59.26
-64.30
-66.23
-64.01
-57.26
-46.33
-32.26
-16.48
-0.53
14.25
26.92
36.94
44.10
48.40
49.96
49.02
46.01
41.52
36.28
31.08
26.63
23.38
21.53
21.03
21.64
22.96
24.57
26.03
26.94
26.99
26.05
24.14
21.42
18.06
14.17
9.78
4.84
-0.61
-6.40
-12.27
-17.87
-23.00
-27.65
-32.01
-36.47
-41.36
-46.95
-53.24
-59.95
-66.52
-72.07
-75.53
-75.70
-71.62
-62.80
-49.54
-32.92
-14.65
3.34
19.38
32.30
41.65
47.51
50.29
50.49
48.64
45.27
41.00
36.53
32.51
29.43
27.52
26.72
26.80
27.51
28.58
29.80
30.87
31.49
31.31
30.12
27.89
24.76
20.95
16.67
11.98
6.89
1.41
-4.36
-10.17
-15.73
-20.84
-25.47
-29.79
-34.12
-38.82
-44.18
-50.28
-56.97
-63.75
-69.85
-74.19
-75.61
-73.04
-65.92
-54.37
-39.30
-22.23
-4.86
11.28
25.19
36.36
44.69
50.19
52.93
53.01
50.65
46.42
41.13
35.80
31.28
28.15
26.57
26.38
27.14
28.33
29.49
30.25
30.38
29.78
28.45
26.37
23.56
19.99
15.68
10.67
5.14
-0.64
-6.35
-11.67
-16.47
-20.77
-24.79
-28.81
-33.13
-37.99
-43.42
-49.29
-55.17
-60.29
-63.67
-64.19
-60.93
-53.44
-41.94
-27.35
-11.11
5.18
20.05
32.40
41.61
47.49
50.24
50.27
48.23
44.81
40.77
36.82
33.56
31.33
30.19
29.90
30.00
30.02
29.60
28.61
27.18
25.52
23.80
22.00
19.91
17.19
13.52
8.82
3.20
-2.96
-9.25
-15.28
-20.85
-26.01
-30.95
-35.94
-41.21
-46.85
-52.84
-58.96
-64.78
-69.63
-72.61
-72.73
-69.09
-61.20
-49.19
-33.89
-16.71
0.69
16.75
30.32
40.72
47.74
51.41
51.94
49.72
45.35
39.76
34.08
29.39
26.43
25.35
25.70
26.64
27.35
27.33
26.52
25.20
23.74
22.37
21.03
19.42
17.14
13.87
9.42
3.84
-2.64
-9.66
-16.77
-23.56
-29.78
-35.36
-40.43
-45.27
-50.20
-55.53
-61.48
-68.04
-74.87
-81.12
-85.51
-86.50
-82.74
-73.59
-59.45
-41.68
-22.34
-3.50
13.18
26.80
37.12
44.32
48.71
50.61
50.25
47.97
44.28
39.84
35.35
31.48
28.73
27.39
27.53
29.00
31.44
34.29
36.88
38.56
38.86
37.59
34.82
30.85
26.00
20.53
14.58
8.23
1.51
-5.48
-12.55
-19.47
-25.98
-31.93
-37.37
-42.55
-47.90
-53.87
-60.68
-68.04
-75.08
-80.43
