1544802362.00
64.000000
-0.00
-0.00
-0.00
-0.00
-0.00
-0.00
-0.00
-0.00
-0.00
-0.00
0.00
0.01
0.01
-0.00
-0.03
-0.05
-0.05
0.00
0.13
0.36
0.66
1.01
1.37
1.72
2.06
2.40
2.79
3.24
3.80
4.42
5.06
5.66
6.20
6.68
7.15
7.68
8.31
9.14
10.09
11.04
11.88
12.56
13.14
13.76
14.65
15.96
17.91
20.32
22.90
25.38
27.58
29.57
31.68
34.32
37.81
42.54
48.15
54.10
59.83
64.97
69.58
74.14
79.34
85.71
93.76
103.00
112.62
121.73
129.77
136.75
143.30
150.75
157.77
166.64
177.95
191.79
206.97
220.57
228.25
225.36
208.53
176.87
132.76
80.05
23.07
-34.94
-92.44
-149.16
-205.23
-260.37
-313.74
-363.87
-409.83
-450.91
-486.50
-515.74
-537.23
-549.22
-549.96
-538.37
-514.21
-478.67
-433.88
-382.45
-327.02
-269.84
-212.63
-156.66
-102.95
-52.37
-5.90
35.58
71.43
101.35
125.50
144.38
158.69
169.15
176.37
180.75
182.57
182.07
179.51
175.23
169.65
163.18
156.15
148.81
141.30
133.69
126.02
118.33
110.69
103.16
95.80
88.68
81.83
75.25
68.95
62.95
57.25
51.86
46.78
42.03
37.59
33.45
29.61
26.07
22.81
19.83
17.11
14.67
12.48
10.54
8.83
7.35
6.07
4.97
4.05
3.27
2.62
2.09
1.65
1.30
1.01
0.79
0.61
0.48
0.37
0.29
0.24
0.20
0.18
0.17
0.17
0.19
0.21
0.23
0.27
0.30
0.34
0.38
0.42
0.46
0.51
0.55
0.59
0.64
0.69
0.74
0.80
0.86
0.93
1.02
1.11
1.22
1.35
1.49
1.65
1.82
2.02
2.24
2.48
2.74
3.03
3.34
3.69
4.06
4.47
4.90
5.38
5.88
6.43
7.01
7.63
8.29
8.99
9.73
10.52
11.35
12.22
13.14
14.12
15.16
16.26
17.42
18.63
19.85
21.03
22.10
22.97
23.51
23.60
23.13
21.99
20.15
17.59
14.37
10.55
6.34
1.93
-2.45
-6.56
-10.16
-13.03
-15.03
-16.06
-16.09
-15.16
-13.40
-11.00
-8.18
-5.17
-2.20
0.52
2.84
4.67
5.99
6.79
7.14
7.15
6.97
6.80
6.81
7.14
7.96
9.42
11.41
13.88
16.75
19.98
23.50
27.28
31.33
35.71
40.56
45.68
50.95
56.36
61.88
67.55
73.36
79.38
85.71
92.61
99.68
106.78
113.84
120.82
127.69
134.42
140.97
147.35
153.67
159.25
163.67
166.60
167.70
166.58
162.60
154.73
141.14
125.38
108.68
92.03
76.31
62.26
50.46
41.15
34.37
29.88
27.42
25.91
24.59
22.99
20.86
18.04
14.39
9.74
3.94
-2.90
-11.09
-20.41
-30.31
-40.14
-49.43
-58.10
-66.57
-75.49
-85.45
-97.10
-110.41
-124.80
-139.42
-153.53
-166.82
-179.55
-192.45
-206.65
-223.48
-243.91
-267.93
-294.18
-319.72
-340.62
-352.93
-353.95
-343.24
-322.86
-296.51
-268.29
-241.49
-217.90
-197.90
-181.00
-166.53
-154.02
-143.26
-134.13
-126.35
-119.45
-112.78
-105.62
-97.38
-87.71
-76.59
-64.30
-51.36
-38.32
-25.60
-13.32
-1.46
10.07
21.19
31.59
40.83
48.61
55.00
60.44
65.55
70.62
75.32
78.65
79.36
76.59
70.45
62.22
53.96
47.82
45.27
46.62
50.95
56.58
61.56
64.33
64.10
61.04
56.11
50.70
46.16
43.26
42.01
41.64
41.06
39.39
36.43
32.58
28.59
24.95
21.58
17.87
13.05
6.75
-0.68
-8.31
-15.10
-20.37
-24.15
-27.06
-30.04
-33.84
-38.71
-44.26
-49.54
-53.24
-54.03
-51.04
-44.19
-34.38
-23.23
-12.53
-3.56
3.47
9.38
15.52
22.91
31.58
40.46
47.76
51.94
52.37
49.70
45.59
41.94
40.19
40.86
43.69
47.97
52.95
58.02
62.75
66.73
69.50
70.71
70.22
68.31
65.46
62.17
58.72
55.09
51.08
46.66
42.06
37.70
33.99
31.05
28.65
26.39
23.95
21.27
18.46
15.60
12.54
8.97
4.59
-0.56
-6.01
-11.02
-14.95
-17.60
-19.34
-21.07
-23.84
-28.50
-35.35
-43.95
-53.18
-61.42
-66.96
-68.51
-65.52
-58.34
-48.09
-36.23
-24.18
-13.02
-3.40
4.38
10.22
14.18
16.42
17.12
16.54
14.95
12.65
10.02
7.54
5.71
4.92
5.32
6.68
8.59
10.61
12.50
14.27
16.09
18.07
20.17
22.18
23.82
24.94
25.56
25.91
26.31
26.97
27.84
28.64
28.97
28.57
27.49
26.25
25.51
25.79
27.12
29.02
30.73
31.58
31.36
30.32
28.94
27.65
26.57
25.47
23.88
21.28
17.29
11.72
4.78
-2.92
-10.39
-16.47
-20.15
-20.89
-18.79
-14.43
-8.68
-2.32
4.03
9.93
14.92
18.48
20.03
19.24
16.21
11.58
6.32
1.47
-2.25
-4.50
-5.31
-4.83
-3.20
-0.45
3.28
7.71
12.25
16.19
18.90
20.15
20.03
18.98
17.51
16.02
14.76
13.79
13.06
12.43
11.71
10.59
8.80
6.15
2.69
-1.25
-5.30
-9.15
-12.71
-16.14
-19.67
-23.46
-27.60
-32.11
-37.01
-42.25
-47.58
-52.34
-55.58
-56.32
-53.95
-48.56
-40.98
-32.35
-23.83
-16.17
-9.70
-4.51
-0.70
1.38
1.30
-1.32
-6.47
-13.63
-21.78
-29.58
-35.72
-39.34
-40.36
-39.45
-37.91
-37.07
-37.86
-40.42
-43.95
-47.06
-48.23
-46.44
-41.63
-34.95
-28.53
-24.92
-26.25
-33.43
-45.69
-60.81
-75.83
-88.15
-96.33
-100.51
-101.97
-102.34
-102.35
-101.12
-96.23
-84.55
-63.81
-33.85
2.77
41.41
76.67
104.04
121.18
128.28
127.56
122.27
115.64
110.06
106.84
106.24
107.75
110.44
113.14
114.64
113.78
109.58
101.53
89.86
75.71
60.82
47.01
35.41
26.03
17.89
9.65
0.40
-9.87
-20.29
-29.51
-36.37
-40.24
-41.10
-39.28
-35.04
-28.41
-19.13
-6.86
8.29
25.55
43.40
59.96
73.53
83.19
89.01
91.85
92.80
92.70
91.76
89.82
86.65
82.34
77.33
72.12
66.97
61.63
55.49
47.88
38.47
27.37
15.04
2.06
-11.07
-23.90
-35.88
-46.15
-53.53
-56.82
-55.26
-48.83
-38.43
-25.66
-12.29
0.23
11.05
20.05
27.46
33.68
38.90
43.13
46.33
48.50
49.83
50.54
50.80
50.66
50.16
49.49
48.91
48.67
48.64
48.16
46.31
42.27
35.80
27.43
18.18
9.05
0.62
-7.01
-14.10
-20.85
-27.12
-32.52
-36.62
-39.19
-40.36
-40.63
-40.68
-41.31
-43.44
-48.14
-56.48
-69.10
-85.78
-105.09
-124.56
-141.44
-153.55
-160.03
-161.34
-158.81
-153.75
-146.82
-137.95
-126.79
-113.21
-97.72
-81.33
-65.18
-50.19
-36.99
-26.02
-17.78
-12.70
-10.98
-12.21
-15.11
-17.73
-17.99
-14.30
-6.15
5.82
20.07
34.72
48.14
59.33
67.92
74.07
78.14
80.53
81.61
81.65
80.89
79.45
77.37
74.59
70.98
66.48
61.10
54.99
48.31
41.24
33.93
26.48
18.98
11.43
3.76
-4.21
-12.66
-21.72
-31.32
-41.26
-51.24
-60.91
-69.92
-77.76
-83.80
-87.25
-87.28
-83.40
-75.56
-64.34
-50.84
-36.48
-22.78
-11.07
-2.28
3.25
5.76
5.92
4.61
2.56
0.17
-2.43
-5.25
-8.24
-11.16
-13.71
-15.58
-16.60
-16.61
-15.46
-13.04
-9.32
-4.47
1.09
6.75
11.95
16.28
19.56
21.84
23.25
23.94
24.10
23.95
23.74
23.61
23.55
23.26
22.37
20.54
17.76
14.30
10.74
7.62
5.26
3.57
2.13
0.45
-1.84
-4.87
-8.54
-12.72
-17.40
-22.66
-28.43
-34.26
-39.24
-42.13
-41.88
-38.05
-31.21
-22.87
-15.08
-9.74
-8.20
-10.94
-17.68
-27.59
-39.39
-51.38
-61.54
-67.91
-69.16
-65.21
-57.41
-48.04
-39.39
-32.66
-27.62
-22.80
-16.48
-7.61
3.67
16.29
28.90
40.48
50.68
59.59
67.37
73.99
79.18
82.67
84.49
85.03
84.84
84.45
84.00
83.18
81.49
78.48
74.10
68.77
63.24
58.24
54.25
51.28
48.96
46.74
44.07
40.63
36.33
31.26
25.56
19.34
12.54
5.02
-3.43
-12.81
-22.83
-32.79
-41.60
-48.06
-51.11
-50.19
-45.33
-37.16
-26.72
-15.13
-3.38
7.79
17.88
26.59
33.73
39.19
42.89
44.87
45.25
44.27
42.27
39.68
36.97
34.58
32.81
31.75
31.28
31.10
30.86
30.30
29.21
27.49
25.11
22.06
18.44
14.41
10.19
5.91
1.65
-2.63
-6.95
-11.33
-15.68
-19.84
-23.72
-27.26
-30.57
-33.87
-37.41
-41.47
-46.08
-51.13
-56.22
-60.89
-64.66
-67.31
-68.88
-69.71
-70.27
-70.99
-72.13
-73.59
-74.97
-75.53
-74.37
-70.65
-63.84
-53.90
-41.39
-27.27
-12.68
1.28
13.85
24.56
33.21
39.79
44.36
47.08
48.13
47.83
46.53
44.65
42.64
40.86
39.53
38.69
38.13
37.56
36.71
35.44
33.74
31.67
29.28
26.46
23.06
18.98
14.28
9.28
4.51
0.47
-2.56
-4.63
-6.09
-7.38
-8.87
-10.66
-12.67
-14.76
-16.94
-19.37
-22.32
-26.04
-30.58
-35.87
-41.74
-48.11
-54.84
-61.72
-68.22
-73.48
-76.39
-75.88
-71.31
-62.73
-50.91
-37.20
-23.12
-9.92
1.70
11.78
20.94
30.09
40.00
50.97
62.74
74.44
84.86
92.61
96.42
95.46
89.54
79.29
66.16
52.09
39.02
28.39
20.87
16.30
14.06
13.32
13.41
13.84
14.31
14.62
14.65
14.36
13.75
12.80
11.36
9.21
6.11
1.96
-3.14
-8.84
-14.65
-20.14
-25.01
-29.22
-33.02
-36.94
-41.65
-47.67
-55.17
-63.70
-72.19
-79.08
-82.77
-82.08
-76.61
-66.84
-53.92
-39.34
-24.48
-10.46
2.03
12.61
21.13
27.56
32.02
34.74
36.09
36.57
36.69
36.91
37.49
38.51
39.90
41.47
43.04
44.52
45.88
47.10
48.14
48.84
48.94
48.16
46.29
43.29
39.27
34.56
29.55
24.61
20.02
15.88
12.14
8.67
5.28
1.79
-1.91
-5.88
-10.07
-14.38
-18.69
-22.94
-27.15
-31.52
-36.25
-41.50
-47.23
-53.17
-58.75
-63.25
-65.79
-65.54
-61.88
-54.58
-43.98
-30.98
-16.87
-2.99
9.56
20.09
28.33
34.32
38.23
40.28
40.72
39.90
38.23
36.14
33.99
31.98
30.19
28.62
27.23
26.05
25.13
24.57
24.44
24.75
25.35
25.96
26.15
25.54
23.87
21.19
17.76
14.00
10.28
6.73
3.26
-0.44
-4.65
-9.45
-14.63
-19.83
-24.67
-28.95
-32.76
-36.38
-40.24
-44.65
-49.73
-55.28
-60.75
-65.26
-67.76
-67.27
-63.16
-55.31
-44.27
-31.09
-17.06
-3.51
8.56
18.47
25.93
30.98
33.88
35.02
34.87
33.86
32.33
30.54
28.67
26.90
25.32
24.10
23.24
22.74
22.44
22.10
21.48
20.38
18.75
16.62
14.13
11.37
8.40
5.20
1.70
-2.13
-6.24
-10.44
-14.58
-18.46
-22.06
-25.50
-28.99
-32.77
-37.03
-41.86
-47.22
-52.90
-58.47
-63.32
-66.59
-67.39
-65.01
-59.11
-49.88
-38.01
-24.59
-10.81
2.22
13.59
22.77
29.58
34.20
36.97
38.31
38.55
37.87
36.42
34.41
32.17
30.10
28.54
27.58
27.10
26.82
26.51
26.08
25.57
25.03
24.38
23.42
21.92
19.84
17.28
14.51
11.77
9.05
6.17
2.87
-1.01
-5.40
-9.98
-14.39
-18.43
-22.11
-25.70
-29.61
-34.20
-39.64
-45.83
-52.35
-58.38
-62.88
-64.75
-63.14
-57.75
-48.87
-37.44
-24.64
-11.69
0.47
11.22
20.17
27.13
32.05
34.96
36.10
35.89
34.89
33.61
32.44
31.55
31.00
30.74
30.77
31.09
31.72
32.58
33.49
34.21
34.56
34.42
33.83
32.86
31.57
29.95
27.94
25.51
22.71
19.67
16.54
13.44
10.37
7.25
3.98
0.51
-3.15
-6.98
-10.96
-15.11
-19.43
-23.92
-28.50
-33.04
-37.48
-41.83
-46.30
-51.19
-56.76
-63.05
-69.58
-75.46
-79.40
-80.11
-76.71
-68.97
-57.50
-43.51
-28.52
-13.91
-0.74
10.45
19.50
26.51
31.66
35.09
36.91
37.28
36.51
35.07
33.53
32.43
32.06
32.43
33.22
34.03
34.54
34.66
34.53
34.45
34.67
35.19
35.72
35.71
34.60
32.04
28.09
23.36
18.76
15.25
13.42
13.17
13.68
13.70
12.01
8.03
2.15
-4.37
-9.90
-13.10
-13.58
-12.09
-10.26
-9.87
-12.24
-17.65
-25.35
-33.87
-41.34
-46.15
-47.54
-46.25
-44.89
-47.58
-58.73
-81.17
-114.15
-152.79
-189.07
-214.49
-223.05
-213.34
-188.37
-153.75
-115.01
-75.52
-35.89
5.19
49.24
96.44
144.70
190.03
227.58
253.35
265.52
264.96
254.66
238.57
220.06
201.07
182.13
163.16
144.44
126.99
112.30
101.41
94.31
89.76
85.87
81.03
74.51
66.66
58.59
51.41
45.72
41.24
37.04
32.07
25.73
18.28
10.80
4.79
1.44
1.15
3.38
6.86
10.17
12.23
12.64
11.57
9.46
6.72
3.52
-0.10
-4.13
-8.54
-13.30
-18.54
-24.66
-32.08
-41.12
-51.61
-63.02
-74.50
-85.28
-94.95
-103.39
-110.54
-116.12
-119.34
-119.19
-115.02
-107.23
-97.50
-88.53
-83.03
-82.65
-87.25
-94.90
-102.64
-107.47
-107.07
-100.19
-86.61
-67.16
-43.78
-19.49
1.99
17.15
23.91
22.37
14.80
4.68
-4.64
-11.08
-14.06
-14.11
-12.10
-8.62
-3.79
2.45
10.07
18.60
27.23
34.91
40.74
44.20
45.22
44.09
41.21
36.88
31.25
24.38
16.54
8.32
0.56
-5.98
-10.98
-14.77
-18.13
-21.91
-26.48
-31.47
-35.78
-38.00
-36.95
-32.12
-23.83
-13.19
-1.67
9.30
18.61
25.65
30.25
32.61
33.12
32.31
30.66
28.50
26.02
23.25
20.28
17.27
14.48
12.20
10.50
9.24
8.13
6.89
5.50
4.12
3.04
2.39
2.04
1.62
0.75
-0.78
-2.83
-5.02
-6.94
-8.36
-9.30
-9.97
-10.57
-11.22
-11.82
-12.24
-12.38
-12.37
-12.49
-13.09
-14.43
-16.55
-19.20
-22.02
-24.77
-27.39
-30.20
-33.62
-37.97
-43.08
-48.25
-52.38
-54.36
-53.55
-49.95
-44.12
-36.90
-29.03
-21.06
-13.37
-6.29
-0.25
4.44
7.65
9.54
10.47
10.79
10.65
10.02
8.78
6.98
4.80
2.67
0.96
-0.08
-0.42
-0.21
0.26
0.63
0.58
-0.16
-1.60
-3.55
-5.66
-7.66
-9.59
-11.91
-15.28
-20.29
-27.15
-35.44
-44.50
-53.57
-62.12
-69.89
-76.73
-82.53
-87.36
-91.61
-96.23
-102.39
-111.03
-122.34
-135.45
-148.94
-161.55
-172.84
-183.18
-192.99
-202.09
-209.31
-212.99
-211.78
-205.11
-193.10
-176.11
-154.40
-128.54
-99.95
-71.14
-44.83
-22.58
-3.84
13.86
33.49
56.83
83.62
111.95
139.45
164.39
186.01
204.00
218.00
227.46
232.08
232.57
230.79
229.28
230.37
235.04
242.40
249.66
252.90
248.36
234.20
211.81
185.97
163.41
150.24
149.45
159.64
175.67
190.79
199.23
197.94
187.07
169.18
147.80
126.31
107.33
92.57
82.88
78.06
76.62
75.62
71.14
59.35
37.85
6.65
-31.68
-72.74
-111.68
-144.41
-168.35
-182.52
-187.18
-183.54
-173.44
-159.12
-143.00
-127.32
-113.71
-103.07
-95.52
-90.70
-88.07
-87.03
-87.07
-87.79
-88.97
-90.48
-92.33
-94.50
-96.84
-99.12
-101.11
-102.59
-103.44
-103.66
-103.28
-102.44
-101.31
-100.08
-98.88
-97.63
-96.14
-94.30
-92.25
-90.48
-89.64
-90.23
-92.23
-95.13
-98.12
-100.49
-101.94
-102.65
-103.23
-104.62
-108.16
-115.24
-126.76
-142.28
-159.39
-173.96
-181.18
-177.35
-161.32
-134.82
-101.64
-66.07
-31.61
-0.33
26.85
49.71
68.46
83.91
97.24
109.71
122.00
133.67
143.49
150.12
152.85
151.80
147.50
140.09
129.17
114.12
95.29
74.67
55.77
42.63
38.36
44.32
60.06
83.88
113.74
147.50
183.03
218.24
251.19
280.50
305.48
325.97
341.73
351.83
354.36
347.03
328.08
297.11
255.36
205.19
149.31
90.31
30.70
-26.80
-79.04
-122.88
-155.91
-177.29
-188.10
-190.87
-188.69
-184.18
-178.94
-173.61
-168.21
-162.67
-157.02
-151.47
-146.12
-140.90
-135.51
-129.48
-122.27
-113.53
-103.13
-91.36
-78.88
-66.60
-55.48
-46.30
-39.50
-35.21
-33.29
-33.48
-35.40
-38.54
-42.15
-45.28
-46.93
-46.35
-43.28
-38.17
-32.04
-26.33
-22.48
-21.59
-24.07
-29.58
-36.99
-44.72
-51.02
-54.43
-54.00
-49.49
-41.26
-30.17
-17.32
-3.80
9.36
21.36
31.62
39.86
46.00
50.18
52.64
53.75
53.94
53.68
53.35
53.16
53.12
53.04
52.71
51.95
50.77
49.40
48.19
47.44
47.28
47.59
47.99
48.04
47.46
46.19
44.43
42.42
40.29
37.96
35.17
31.61
27.09
21.66
15.58
9.25
3.03
-2.86
-8.34
-13.48
-18.44
-23.48
-28.92
-35.00
-41.85
-49.28
-56.69
-63.04
-67.08
-67.66
-64.09
-56.42
-45.34
-32.03
-17.74
-3.51
9.91
21.96
32.21
40.29
45.99
49.35
50.76
50.87
50.42
49.98
49.89
50.19
50.76
51.41
52.02
52.55
52.98
53.38
53.77
54.16
54.47
54.52
54.07
52.89
50.83
47.95
44.45
40.68
36.93
33.35
29.87
26.27
22.28
17.73
12.65
7.25
1.86
-3.13
-7.49
-11.20
-14.44
-17.64
-21.33
-26.01
-31.97
-39.19
-47.21
-55.10
-61.58
-65.33
-65.24
-60.81
-52.23
-40.38
-26.51
-11.93
2.27
15.33
26.78
36.33
43.79
49.09
52.29
53.65
53.61
52.69
51.43
50.20
49.22
48.54
48.13
47.89
47.76
47.68
47.65
47.58
47.34
46.79
45.80
44.40
42.70
40.85
38.99
37.17
35.30
33.24
30.85
28.09
24.97
21.60
18.12
14.70
11.41
8.29
5.27
2.21
-1.05
-4.61
-8.43
-12.38
-16.35
-20.27
-24.24
-28.52
-33.45
-39.32
-46.20
-53.83
-61.55
-68.37
-73.12
-74.74
-72.51
-66.27
-56.47
-44.03
-30.13
-15.93
-2.44
9.66
19.96
28.26
34.53
38.86
41.50
42.81
43.24
43.20
43.00
42.79
42.62
42.43
42.23
42.03
41.88
41.88
42.05
42.39
42.79
43.11
43.14
42.70
41.70
40.17
38.21
36.01
33.70
31.33
28.90
26.38
23.80
21.19
18.61
16.04
13.40
10.59
7.55
4.29
0.84
-2.75
-6.47
-10.34
-14.34
-18.38
-22.27
-25.81
-28.93
-31.79
-34.73
-38.22
-42.67
-48.22
-54.67
-61.37
-67.39
-71.62
-73.05
-71.02
-65.38
-56.58
-45.50
-33.27
-20.97
-9.47
0.68
9.22
16.12
21.42
25.23
27.66
28.85
29.02
28.46
27.56
26.66
26.07
25.89
26.11
26.63
27.33
28.11
28.92
29.74
30.49
31.01
31.15
30.75
29.76
28.20
26.22
23.96
21.54
18.98
16.31
13.48
10.55
7.58
4.74
2.19
0.07
-1.58
-2.86
-4.02
-5.33
-7.05
-9.31
-12.01
-14.90
-17.72
-20.26
-22.54
-24.74
-27.09
-29.87
-33.29
-37.44
-42.30
-47.56
-52.67
-56.87
-59.27
-59.16
-56.20
-50.50
-42.61
-33.32
-23.52
-13.96
-5.19
2.42
8.67
13.51
16.92
18.99
19.84
19.63
18.64
17.21
15.73
14.53
13.84
13.72
14.09
14.82
15.76
16.82
17.92
18.97
19.84
20.36
20.38
19.82
18.68
17.08
15.18
13.13
11.05
8.99
6.95
4.91
2.81
0.63
-1.67
-4.10
-6.69
-9.47
-12.44
-15.55
-18.68
-21.68
-24.43
-26.95
-29.37
-31.95
-34.94
-38.50
-42.61
-47.05
-51.39
-55.06
-57.33
-57.50
-55.01
-49.70
-41.91
-32.42
-22.32
-12.62
-4.01
3.15
8.90
13.40
16.81
19.21
20.65
21.25
21.18
20.74
20.21
19.82
19.70
19.85
20.24
20.76
21.36
21.99
22.65
23.25
23.70
23.84
23.53
22.67
21.23
19.28
16.92
14.23
11.31
8.25
5.19
2.26
-0.39
-2.76
-4.96
-7.23
-9.80
-12.76
-15.99
-19.21
-22.10
-24.50
-26.46
-28.21
-30.12
-32.47
-35.42
-39.01
-43.18
-47.70
-52.19
-55.98
-58.26
-58.20
-55.32
-49.64
-41.68
-32.34
-22.57
-13.13
-4.53
2.97
9.22
14.09
17.54
19.65
20.66
20.92
20.79
20.49
20.10
19.66
19.15
18.65
18.29
18.21
18.52
19.24
20.29
21.55
22.82
23.86
24.45
24.46
23.80
22.51
20.69
18.43
15.82
12.89
9.69
6.31
2.89
-0.41
-3.50
-6.31
-8.91
-11.42
-13.99
-16.68
-19.46
-22.21
-24.73
-26.85
-28.53
-29.93
-31.42
-33.51
-36.61
-40.91
-46.23
-51.98
-57.34
-61.39
-63.34
-62.60
-58.96
-52.57
-43.99
-34.07
-23.79
-14.05
-5.46
1.69
7.36
11.68
14.82
16.92
18.15
18.71
18.84
18.80
18.79
18.93
19.26
19.77
20.39
21.07
21.76
22.37
22.85
23.18
23.35
23.27
22.85
21.96
20.52
18.56
16.26
13.84
11.47
9.26
7.14
5.00
2.70
0.20
-2.49
-5.32
-8.16
-10.88
-13.35
-15.50
-17.36
-19.12
-21.11
-23.63
-26.93
-31.00
-35.60
-40.31
-44.52
-47.58
-48.80
-47.60
-43.64
-37.03
-28.26
-18.24
-7.97
1.64
9.94
16.63
21.64
25.05
26.95
27.49
26.85
25.35
23.44
21.63
20.33
19.78
19.96
20.64
21.49
22.30
22.99
23.64
24.36
25.13
25.80
26.11
25.81
24.75
22.95
20.59
17.88
15.02
12.10
9.15
6.11
2.94
-0.39
-3.86
-7.41
-11.01
-14.63
-18.25
-21.84
-25.35
-28.76
-32.06
-35.39
-39.01
-43.23
-48.26
-54.02
-59.96
-65.13
-68.34
-68.53
-65.10
-58.13
-48.35
-36.87
-24.86
-13.31
-2.84
6.19
13.62
19.38
23.50
26.11
27.51
28.08
28.21
28.20
28.23
28.28
28.30
28.25
28.15
28.09
28.17
28.48
29.00
29.64
30.28
30.75
30.93
30.70
29.99
28.71
26.88
24.54
21.82
18.86
15.80
12.64
9.33
5.80
2.01
-2.01
-6.14
-10.28
-14.30
-18.15
-21.83
-25.32
-28.62
-31.80
-35.02
-38.61
-42.88
-48.08
-54.14
-60.62
-66.65
-71.09
-72.84
-71.06
-65.45
-56.33
-44.55
-31.33
-17.99
-5.64
4.99
13.57
20.15
24.98
28.38
30.62
31.93
32.51
32.55
32.34
32.11
32.06
32.25
32.64
33.16
33.78
34.49
35.25
35.98
36.53
36.71
36.40
35.57
34.31
32.70
30.86
28.85
26.70
24.42
21.97
19.30
16.35
13.10
9.59
5.97
2.41
-0.99
-4.24
-7.45
-10.77
-14.24
-17.75
-21.09
-24.06
-26.66
-29.09
-31.75
-35.11
-39.47
-44.92
-51.15
-57.55
-63.25
-67.23
-68.57
-66.63
-61.19
-52.50
-41.24
-28.36
-14.95
-2.01
9.59
19.20
26.47
31.35
34.03
34.92
34.47
33.13
31.33
29.45
27.83
26.77
26.47
26.99
28.18
29.81
31.61
33.33
34.79
35.82
36.32
36.17
35.34
33.84
31.76
29.25
26.50
23.68
20.90
18.20
15.53
12.81
9.94
6.84
3.42
-0.33
-4.36
-8.55
-12.67
-16.49
-19.83
-22.68
-25.27
-28.01
-31.39
-35.78
-41.31
-47.73
-54.35
-60.21
-64.18
-65.26
-62.81
-56.70
-47.37
-35.72
-22.86
-9.89
2.32
13.15
22.27
29.50
34.80
38.28
40.14
40.70
40.36
39.52
38.53
37.60
36.87
36.38
36.15
36.21
36.61
37.34
38.35
39.45
40.39
40.85
40.66
39.75
38.20
36.14
33.71
30.96
27.90
24.52
20.86
17.05
13.27
9.66
6.27
3.00
-0.38
-4.12
-8.32
-12.91
-17.63
-22.12
-26.13
-29.61
-32.75
-35.93
-39.55
-43.96
-49.35
-55.66
-62.53
-69.20
-74.53
-77.26
-76.31
-71.13
-61.94
-49.71
-35.82
-21.71
-8.51
3.11
12.90
20.88
27.17
31.91
35.26
37.39
38.57
39.09
39.21
39.15
39.02
38.88
38.76
38.75
38.99
39.63
40.72
42.17
43.70
44.93
45.50
45.18
43.94
41.94
39.45
36.76
34.07
31.47
28.92
26.29
23.43
20.23
16.69
12.90
9.07
5.43
2.09
-0.96
-3.87
-6.89
-10.24
-14.02
-18.18
-22.57
-26.97
-31.24
-35.43
-39.73
-44.49
-50.06
-56.60
-63.98
-71.64
-78.60
-83.66
-85.66
-83.79
-77.82
-68.14
-55.65
-41.51
-26.90
-12.88
-0.26
10.49
19.10
25.56
30.04
32.79
34.16
34.56
34.39
33.97
33.56
33.28
33.17
33.26
33.64
34.43
35.76
37.64
39.91
42.25
44.21
45.37
45.49
44.50
42.59
40.06
37.27
34.47
31.71
28.89
25.82
22.33
18.42
14.28
10.18
6.38
2.94
-0.22
-3.29
-6.45
-9.77
-13.20
-16.66
-20.10
-23.53
-27.08
-30.85
-34.94
-39.37
-44.19
-49.49
-55.31
-61.61
-68.06
-73.97
-78.28
-79.83
-77.67
-71.38
-61.26
-48.27
-33.76
-19.13
-5.53
6.33
16.08
23.65
29.08
32.51
34.19
34.52
34.01
33.17
32.45
32.08
32.12
32.46
33.00
33.66
34.44
35.35
36.36
37.34
38.10
38.39
38.05
37.05
35.45
33.44
31.12
28.57
25.73
22.61
19.22
15.68
12.15
8.69
5.25
1.65
-2.30
-6.69
-11.37
-16.03
-20.34
-24.12
-27.47
-30.73
-34.33
-38.63
-43.85
-49.99
-56.83
-63.86
-70.27
-74.95
-76.71
-74.56
-68.08
-57.59
-44.13
-29.16
-14.18
-0.36
11.58
21.37
28.98
34.52
38.14
39.99
40.34
39.52
38.03
36.33
34.83
33.76
33.18
33.05
33.28
33.82
34.62
35.58
36.57
37.37
37.77
37.59
36.75
35.23
33.11
30.52
27.57
24.39
21.09
17.69
14.25
10.81
7.42
4.16
1.07
-1.90
-4.91
-8.20
-11.92
-16.04
-20.35
-24.52
-28.32
-31.72
-35.01
-38.61
-42.99
-48.43
-54.93
-62.18
-69.52
-76.01
-80.53
-81.92
-79.33
-72.47
-61.76
-48.24
-33.39
-18.67
-5.26
6.17
15.40
22.48
27.60
31.00
32.93
33.68
33.65
33.21
32.73
32.46
32.51
32.89
33.53
34.40
35.43
36.57
37.70
38.69
39.36
39.55
39.08
37.87
35.93
33.36
30.38
27.20
23.97
20.74
17.48
14.10
10.61
7.05
3.54
0.15
-3.12
-6.39
-9.84
-13.60
-17.67
-21.91
-26.12
-30.08
-33.72
-37.14
-40.61
-44.52
-49.24
-54.98
-61.72
-69.04
-76.14
-81.94
-85.20
-84.85
-80.23
-71.42
-59.16
-44.73
-29.64
-15.20
-2.32
8.54
17.34
24.18
29.23
32.64
34.58
35.32
35.25
34.79
34.32
34.12
34.28
34.76
35.46
36.29
37.16
38.01
38.79
39.42
39.75
39.65
38.95
37.58
35.52
32.88
29.82
26.49
23.00
19.42
15.79
12.15
8.61
5.21
1.95
-1.28
-4.64
-8.27
-12.13
-16.05
-19.73
-22.96
-25.69
-28.08
-30.50
-33.37
-37.08
-41.80
-47.46
-53.64
-59.50
-63.94
-65.77
-64.07
-58.44
-49.15
-37.09
-23.52
-9.75
3.11
14.29
23.30
29.95
34.21
36.21
36.29
34.88
32.55
29.93
27.59
25.98
25.34
25.72
26.89
28.54
30.33
32.02
33.47
34.64
35.48
35.90
35.79
35.04
33.62
31.58
29.04
26.11
22.91
19.52
16.01
12.45
8.87
5.27
1.55
-2.36
-6.52
-10.91
-15.37
-19.71
-23.78
-27.51
-30.99
-34.43
-38.18
-42.63
-48.12
-54.78
-62.37
-70.17
-77.02
-81.49
-82.24
-78.44
-70.03
-57.77
-43.04
-27.43
-12.40
1.05
12.36
21.36
28.12
32.85
35.80
37.30
37.73
37.46
36.81
35.99
35.13
34.33
33.70
33.44
33.70
34.57
35.97
37.66
39.27
40.47
41.02
40.85
40.00
38.57
36.64
34.31
31.65
28.76
25.71
22.54
19.21
15.68
11.91
7.99
4.05
0.28
-3.27
-6.69
-10.21
-14.10
-18.50
-23.32
-28.26
-32.93
-37.08
-40.77
-44.35
-48.41
-53.47
-59.79
-67.13
-74.75
-81.51
-86.11
-87.39
-84.56
-77.44
-66.47
-52.59
-37.07
-21.20
-6.13
7.33
18.68
27.65
34.23
38.59
41.03
42.02
42.07
41.60
40.90
40.12
39.29
38.41
37.54
36.85
36.51
36.62
37.12
37.79
38.31
38.38
37.84
36.68
34.97
32.82
30.25
27.34
24.12
20.72
17.31
13.99
10.80
7.68
4.55
1.31
-2.06
-5.55
-9.19
-13.01
-17.02
-21.15
-25.26
-29.22
-32.92
-36.44
-39.96
-43.85
-48.43
-54.00
-60.55
-67.75
-74.81
-80.58
-83.75
-83.20
-78.29
-69.11
-56.45
-41.59
-25.96
-10.80
2.93
14.69
24.20
31.37
36.27
39.08
40.09
39.69
38.29
36.32
34.18
32.25
30.83
30.10
30.11
30.73
31.73
32.85
33.91
34.80
35.45
35.78
35.68
34.97
33.50
31.20
28.16
24.61
20.86
17.17
13.65
10.25
6.80
3.10
-0.89
-5.10
-9.30
-13.26
-16.86
-20.13
-23.22
-26.40
-29.91
-33.97
-38.74
-44.28
-50.52
-57.08
-63.23
-67.94
-70.02
-68.43
-62.65
-52.82
-39.81
-24.98
-9.84
4.30
16.53
26.37
33.72
38.66
41.41
42.25
41.55
39.75
37.38
34.92
32.78
31.20
30.29
29.97
30.09
30.46
30.90
31.22
31.31
31.12
30.60
29.67
28.23
26.11
23.24
19.70
15.72
11.66
7.84
4.38
1.14
-2.22
-6.07
-10.53
-15.47
-20.53
-25.30
-29.58
-33.44
-37.24
-41.47
-46.59
-52.79
-59.92
-67.41
-74.37
-79.65
-82.10
-80.79
-75.29
-65.80
-53.14
-38.51
-23.25
-8.53
4.75
16.06
25.13
31.96
36.63
39.39
40.51
40.35
39.29
37.77
36.21
34.95
34.20
34.01
34.31
34.97
35.88
36.94
38.05
39.00
39.58
39.52
38.71
37.20
35.11
32.61
29.74
26.49
22.78
18.65
14.29
9.99
5.94
2.17
-1.45
-5.23
-9.39
-14.01
-18.95
-23.92
-28.67
-33.09
-37.32
-41.72
-46.72
-52.71
-59.84
-67.89
-76.19
-83.63
-88.85
-90.50
-87.62
-79.92
-67.92
-52.83
-36.17
-19.46
-3.88
9.78
21.17
30.12
36.68
40.97
43.28
44.00
43.62
42.61
41.40
40.29
39.47
39.01
38.88
39.02
39.30
39.61
39.89
40.07
40.12
39.93
39.36
38.25
36.51
34.13
31.23
28.00
24.60
21.14
17.59
13.98
10.33
6.73
3.28
0.02
-3.13
-6.34
-9.82
-13.71
-18.01
-22.54
-27.09
-31.48
-35.72
-39.99
-44.65
-50.02
-56.30
-63.35
-70.69
-77.48
-82.62
-84.95
-83.55
-77.92
-68.14
-54.93
-39.44
-23.09
-7.24
6.98
18.82
27.90
34.19
37.92
39.51
39.49
38.36
36.66
34.84
33.29
32.32
32.11
32.67
33.85
35.42
37.14
38.86
40.45
41.82
42.78
43.12
42.59
41.08
38.64
35.51
31.97
28.26
24.46
20.54
16.46
12.24
7.97
3.77
-0.33
-4.37
-8.42
-12.53
-16.65
-20.70
-24.63
-28.56
-32.79
-37.78
-43.89
-51.13
-58.97
-66.34
-71.74
-73.71
-71.24
-64.09
-52.84
-38.71
-23.20
-7.74
6.54
18.91
28.96
36.55
41.69
44.58
45.55
45.08
43.68
41.87
40.15
38.84
38.07
37.79
37.86
38.13
38.56
39.14
39.89
40.75
41.51
41.93
41.74
40.74
38.85
36.09
32.56
28.46
24.06
19.61
15.31
11.20
7.19
3.04
-1.42
-6.32
-11.59
-17.10
-22.60
-27.87
-32.72
-37.14
-41.29
-45.60
-50.60
-56.73
-64.05
-72.10
-79.84
-85.84
-88.63
-87.10
-80.77
-70.00
-55.82
-39.69
-23.19
-7.61
6.18
17.79
27.14
34.38
39.68
43.21
45.17
45.82
45.54
44.76
43.88
43.19
42.84
42.88
43.26
43.93
44.84
45.91
47.02
47.98
48.50
48.34
47.36
45.60
43.26
40.59
37.75
34.73
31.40
27.59
23.26
18.55
13.73
9.11
4.85
0.95
-2.75
-6.50
-10.53
-14.96
-19.78
-24.86
-29.92
-34.72
-39.09
-43.10
-47.06
-51.45
-56.83
-63.55
-71.56
-80.26
-88.53
-94.87
-97.73
-95.92
-89.02
-77.45
-62.42
-45.58
-28.56
-12.67
1.25
12.85
22.05
28.96
33.77
36.79
38.41
39.06
39.16
39.00
38.78
38.57
38.44
38.48
38.78
39.43
40.40
41.54
42.59
43.25
43.28
42.56
41.18
39.31
37.15
34.88
32.55
30.17
27.71
25.14
22.42
19.49
16.24
12.58
8.40
3.75
-1.27
-6.46
-11.62
-16.60
-21.31
-25.71
-29.81
-33.71
-37.53
-41.53
-46.01
-51.28
-57.49
-64.49
-71.63
-77.86
-81.82
-82.19
-78.16
-69.62
-57.28
-42.46
-26.70
-11.44
2.32
13.98
23.31
30.29
35.02
37.70
38.61
38.16
36.82
35.12
33.54
32.46
32.10
32.48
33.48
34.82
36.18
37.28
37.92
38.11
37.92
37.48
36.81
35.83
34.32
32.11
29.17
25.63
21.78
17.90
14.10
10.33
6.39
2.08
-2.63
-7.64
-12.68
-17.52
-22.00
-26.10
-29.94
-33.71
-37.71
-42.22
-47.54
-53.84
-60.98
-68.42
-75.17
-79.93
-81.39
-78.57
-71.17
-59.73
-45.44
-29.89
-14.61
-0.75
11.06
20.66
28.14
33.65
37.28
39.08
39.24
38.10
36.16
34.03
32.16
30.86
30.20
30.11
30.43
31.08
31.94
32.93
33.91
34.72
35.23
35.40
35.26
34.95
34.51
33.80
32.52
30.32
27.01
22.65
17.63
12.45
7.51
2.94
-1.42
-5.81
-10.32
-14.83
-18.94
-22.31
-24.88
-27.03
-29.58
-33.48
-39.43
-47.55
-57.22
-67.15
-75.73
-81.29
-82.58
-78.98
-70.67
-58.77
-45.20
-32.53
-23.38
-19.84
-22.78
-31.49
-43.83
-56.89
-67.83
-74.62
-76.33
-72.91
-64.73
-52.24
-35.86
-16.30
5.23
26.85
46.34
61.69
71.58
75.73
74.78
69.92
62.37
53.16
42.97
32.35
21.94
12.56
5.18
0.62
-0.72
0.93
4.85
10.02
15.45
20.31
24.08
26.41
27.09
26.04
23.30
19.10
13.70
7.35
0.06
-8.37
-18.05
-28.80
-39.78
-49.47
-55.97
-57.58
-53.36
-43.50
-29.27
-12.60
4.52
20.61
34.87
47.11
57.38
65.68
71.85
75.68
77.16
76.73
75.28
73.82
73.14
73.47
74.41
75.19
75.17
74.14
72.25
69.63
65.72
59.27
48.72
33.22
13.41
-8.51
-29.62
-47.53
-61.22
-70.84
-76.48
-77.04
-70.03
-52.75
-24.18
13.49
54.93
93.25
122.39
138.79
141.85
132.96
114.29
87.77
55.16
18.55
-19.18
-54.55
-84.32
-106.59
-121.68
-132.04
-141.22
-151.95
-164.39
-175.25
-178.66
-168.52
-141.35
-98.35
-45.47
8.53
55.22
89.11
108.79
116.15
114.55
106.99
95.30
80.28
62.57
43.25
23.98
6.51
-7.86
-18.74
-26.70
-32.84
-38.22
-43.40
-48.21
-51.96
-53.81
-53.32
-50.76
-47.13
-43.82
-42.21
-43.14
-46.84
-52.97
-60.92
-70.08
-79.92
-89.91
-99.27
-106.93
-111.67
-112.37
-108.46
-100.05
-88.01
-73.60
-58.18
-42.91
-28.56
-15.58
-4.27
5.21
12.79
18.60
23.07
26.94
31.26
37.02
45.01
55.51
68.16
82.02
95.77
108.01
117.62
123.94
126.84
126.54
123.43
117.90
110.31
101.14
91.02
80.87
71.77
64.70
60.27
58.59
59.17
61.11
63.38
65.20
66.36
67.32
69.03
72.49
78.22
86.00
94.88
103.64
111.24
117.17
121.52
124.68
126.97
128.48
128.99
128.20
125.84
121.68
115.37
106.44
94.43
79.24
61.39
42.01
22.47
3.93
-13.09
-28.68
-43.17
-56.78
-69.34
-80.34
-89.31
-96.07
-100.85
-104.17
-106.56
-108.36
-109.71
-110.69
-111.39
-112.02
-112.78
-113.85
-115.17
-116.51
-117.46
-117.55
-116.41
-114.08
-110.98
-107.94
-105.90
-105.57
-107.00
-109.54
-111.83
-112.30
-109.51
-102.69
-91.84
-77.75
-61.67
-45.11
-29.42
-15.67
-4.53
3.79
9.44
12.86
14.56
14.99
14.44
13.04
10.92
8.29
5.48
3.00
1.31
0.75
1.30
2.64
4.16
5.19
5.17
3.77
1.05
-2.55
-6.15
-8.59
-8.45
-4.48
4.07
16.98
32.78
48.96
62.70
71.60
74.50
71.60
64.09
53.48
41.09
27.83
14.49
2.03
-8.28
-15.10
-17.52
-15.43
-9.63
-1.54
7.34
15.80
23.11
28.94
33.13
35.45
35.55
33.05
27.91
20.53
11.89
3.32
-3.93
-9.03
-11.85
-12.86
-12.83
-12.49
-12.28
-12.32
-12.61
-13.19
-14.12
-15.52
-17.36
-19.47
-21.51
-23.12
-24.11
-24.43
-24.24
-23.94
-24.09
-25.34
-28.27
-33.17
-39.76
-47.10
-53.76
-58.15
-58.94
-55.48
-47.92
-37.12
-24.40
-11.24
1.13
11.76
20.18
26.26
30.13
32.05
32.33
31.39
29.65
27.68
25.95
24.78
24.24
24.13
24.11
23.88
23.33
22.54
21.65
20.75
19.84
18.80
17.42
15.51
12.93
9.53
5.31
0.32
-5.19
-10.87
-16.29
-21.11
-25.24
-28.86
-32.44
-36.54
-41.61
-47.69
-54.25
-60.18
-64.10
-64.60
-60.80
-52.56
-40.59
-26.19
-10.88
3.93
17.20
28.31
36.94
43.02
46.58
47.83
47.12
44.97
42.04
38.93
36.17
33.99
32.45
31.40
30.63
29.98
29.40
28.88
28.41
27.87
27.04
25.65
23.52
20.69
17.35
13.86
10.52
7.50
4.76
2.14
-0.62
-3.68
-7.13
-10.94
-15.00
-19.15
-23.20
-27.05
-30.69
-34.30
-38.20
-42.76
-48.20
-54.39
-60.78
-66.33
-69.71
-69.63
-65.28
-56.57
-44.24
-29.73
-14.74
-0.85
10.88
20.00
26.54
30.77
32.99
33.51
32.64
30.82
28.58
26.52
25.06
24.31
24.13
24.12
23.95
23.36
22.45
21.40
20.55
20.13
20.23
20.69
21.16
21.30
20.76
19.43
17.36
14.78
11.97
9.16
6.56
4.19
2.04
-0.04
-2.21
-4.61
-7.32
-10.34
-13.60
-16.98
-20.33
-23.53
-26.46
-29.11
-31.58
-34.17
-37.28
-41.34
-46.51
-52.55
-58.70
-63.83
-66.64
-66.06
-61.51
-53.07
-41.54
-28.17
-14.41
-1.48
9.72
18.78
25.61
30.32
33.14
34.36
34.35
33.46
32.08
30.43
28.68
26.89
25.20
23.82
22.95
22.68
22.95
23.55
24.24
24.82
25.18
25.27
24.96
24.13
22.67
20.63
18.21
15.70
13.31
11.06
8.74
6.12
3.08
-0.29
-3.64
-6.61
-8.97
-10.80
-12.31
-13.82
-15.50
-17.38
-19.30
-21.15
-22.94
-24.84
-27.15
-30.13
-33.88
-38.19
-42.55
-46.26
-48.51
-48.56
-45.89
-40.26
-31.88
-21.39
-9.76
1.80
12.24
20.73
26.93
30.83
32.65
32.68
31.18
28.46
24.89
20.96
17.23
14.11
11.82
10.30
9.41
9.05
9.15
9.69
10.53
11.41
11.94
11.82
10.93
9.39
7.44
5.35
3.26
1.18
-1.02
-3.47
-6.22
-9.24
-12.39
-15.51
-18.48
-21.18
-23.60
-25.84
-28.08
-30.63
-33.78
-37.76
-42.53
-47.74
-52.68
-56.36
-57.83
-56.32
-51.50
-43.62
-33.41
-21.91
-10.31
0.36
9.37
16.32
21.15
24.00
25.16
24.93
23.71
21.88
19.82
17.85
16.20
14.97
14.16
13.69
13.56
13.80
14.49
15.59
16.96
18.31
19.23
19.40
18.64
17.05
14.89
12.47
10.00
7.52
4.87
1.87
-1.59
-5.49
-9.66
-13.85
-17.79
-21.24
-24.12
-26.54
-28.85
-31.59
-35.27
-40.15
-46.09
-52.43
-58.09
-61.89
-62.86
-60.43
-54.64
-45.97
-35.26
-23.54
-11.77
-0.79
8.77
16.51
22.20
25.83
27.53
27.64
26.60
24.98
23.26
21.80
20.78
20.19
19.93
19.90
20.05
20.40
20.97
21.74
22.64
23.48
24.05
24.12
23.53
22.20
20.22
17.73
15.00
12.23
9.56
7.01
4.52
1.94
-0.87
-4.00
-7.46
-11.15
-14.90
-18.51
-21.83
-24.92
-27.92
-31.18
-35.04
-39.74
-45.32
-51.49
-57.58
-62.60
-65.42
-65.02
-60.78
-52.76
-41.66
-28.74
-15.44
-3.05
7.52
15.89
22.10
26.49
29.46
31.32
32.26
32.41
31.94
31.05
30.02
29.05
28.25
27.65
27.26
27.13
27.34
27.93
28.78
29.64
30.22
30.24
29.61
28.36
26.56
24.30
21.62
18.63
15.45
12.26
9.22
6.39
3.69
0.92
-2.14
-5.64
-9.62
-13.95
-18.33
-22.37
-25.82
-28.55
-30.76
-32.86
-35.40
-38.86
-43.51
-49.25
-55.59
-61.61
-66.20
-68.20
-66.72
-61.34
-52.27
-40.26
-26.49
-12.30
1.05
12.63
21.87
28.61
33.03
35.43
36.22
35.71
34.24
32.16
29.93
27.95
26.54
25.85
25.75
26.04
26.55
27.25
28.21
29.49
30.98
32.38
33.27
33.26
32.16
29.99
27.07
23.79
20.54
17.51
14.69
11.89
8.83
5.36
1.50
-2.56
-6.52
-10.17
-13.43
-16.43
-19.41
-22.63
-26.32
-30.61
-35.61
-41.29
-47.41
-53.36
-58.19
-60.73
-59.90
-55.10
-46.43
-34.69
-21.18
-7.33
5.62
16.81
25.78
32.41
36.73
38.93
39.29
38.23
36.25
33.85
31.54
29.68
28.48
27.97
28.04
28.52
29.22
30.03
30.90
31.81
32.66
33.23
33.21
32.31
30.41
27.64
24.30
20.81
17.51
14.57
11.93
9.36
6.48
2.90
-1.60
-6.94
-12.70
-18.26
-23.06
-26.84
-29.82
-32.65
-36.13
-40.92
-47.25
-54.87
-63.06
-70.74
-76.70
-79.75
-78.95
-73.82
-64.41
-51.45
-36.13
-19.98
-4.46
9.24
20.40
28.78
34.57
38.19
40.08
40.69
40.39
39.54
38.54
37.76
37.47
37.78
38.62
39.81
41.14
42.50
43.85
45.16
46.34
47.17
47.36
46.62
44.76
41.82
37.95
33.46
28.70
23.97
19.46
15.17
10.98
6.69
2.09
-2.85
-8.02
-13.13
-17.88
-22.09
-25.85
-29.47
-33.39
-38.08
-43.83
-50.72
-58.57
-66.92
-74.94
-81.53
-85.41
-85.38
-80.62
-70.95
-57.00
-40.09
-21.96
-4.38
11.23
24.03
33.76
40.65
45.16
47.77
48.90
48.89
48.07
46.67
44.97
43.20
41.57
40.29
39.61
39.70
40.61
42.20
44.11
45.90
47.16
47.67
47.42
46.52
45.10
43.17
40.59
37.16
32.76
27.47
21.64
15.86
10.75
6.78
4.00
2.00
-0.03
-3.00
-7.66
-14.25
-22.31
-30.59
-37.33
-40.65
-39.31
-33.26
-24.02
-14.35
-7.47
-5.87
-10.32
-19.63
-31.04
-41.29
-47.75
-49.08
-45.33
-37.51
-27.02
-15.27
-3.46
7.40
16.44
23.02
26.83
27.96
26.98
24.77
22.30
20.43
19.62
19.93
21.05
22.49
23.85
24.99
26.01
27.25
28.89
30.93
33.04
34.74
35.57
35.23
33.71
31.17
27.92
24.24
20.38
16.46
12.43
8.21
3.62
-1.42
-6.81
-12.22
-17.20
-21.40
-24.72
-27.42
-30.12
-33.56
-38.32
-44.66
-52.29
-60.44
-67.93
-73.45
-75.77
-73.99
-67.76
-57.25
-43.25
-26.96
-9.83
6.64
21.18
32.89
41.36
46.62
49.05
49.26
47.89
45.53
42.73
39.99
37.67
36.07
35.37
35.64
36.74
38.43
40.28
41.86
42.76
42.67
41.46
39.14
35.85
31.81
27.30
22.58
17.91
13.44
9.16
4.90
0.36
-4.70
-10.30
-16.20
-21.89
-26.89
-30.98
-34.39
-37.75
-41.83
-47.25
-54.20
-62.35
-70.91
-78.77
-84.65
-87.24
-85.49
-78.86
-67.54
-52.53
-35.41
-17.98
-1.75
12.32
23.90
33.08
40.12
45.25
48.68
50.54
51.08
50.65
49.62
48.40
47.31
46.59
46.41
46.88
48.00
49.60
51.46
53.20
54.49
55.02
54.60
53.15
50.76
47.67
44.17
40.60
37.14
33.82
30.47
26.85
22.80
18.30
13.53
8.74
4.19
-0.01
-3.91
-7.71
-11.65
-15.95
-20.71
-25.89
-31.31
-36.82
-42.28
-47.79
-53.67
-60.34
-68.19
-77.29
-87.12
-96.58
-104.02
-107.63
-105.95
-98.26
-84.88
-67.13
-46.95
-26.39
-7.17
9.57
23.37
34.18
42.16
47.57
50.70
51.97
51.87
50.98
49.81
48.71
47.83
47.15
46.66
46.37
46.37
46.79
47.66
48.85
50.13
51.19
51.73
51.56
50.58
48.83
46.41
43.48
40.21
36.76
33.21
29.60
25.92
22.14
18.31
14.51
10.84
7.41
4.26
1.34
-1.47
-4.32
-7.36
-10.66
-14.31
-18.36
-22.88
-27.78
-32.95
-38.13
-43.08
-47.70
-52.16
-56.85
-62.27
-68.82
-76.52
-84.90
-92.94
-99.26
-102.33
-100.83
-94.01
-81.97
-65.70
-46.87
-27.44
-9.17
6.72
19.69
29.69
36.96
41.77
44.38
45.10
44.36
42.81
41.10
39.80
39.14
39.07
39.33
39.63
39.92
40.30
40.98
42.02
43.25
44.21
44.46
43.68
41.92
39.47
36.75
34.05
31.44
28.79
25.94
22.80
19.48
16.16
13.10
10.38
7.94
5.61
3.11
0.23
-3.11
-6.93
-11.08
-15.44
-19.82
-24.16
-28.45
-32.83
-37.56
-42.95
-49.27
-56.58
-64.58
-72.54
-79.28
-83.43
-83.62
-78.99
-69.32
-55.27
-38.24
-20.06
-2.56
12.76
25.01
33.88
39.56
42.52
43.32
42.52
40.65
38.18
35.56
33.18
31.34
30.24
29.94
30.40
31.41
32.73
34.12
35.37
36.34
36.88
36.85
36.07
34.46
32.06
29.01
25.59
22.02
18.49
15.01
11.54
8.02
4.40
0.66
-3.19
-7.16
-11.29
-15.62
-20.12
-24.76
-29.41
-33.93
-38.29
-42.51
-46.75
-51.32
-56.52
-62.66
-69.78
-77.61
-85.39
-91.98
-95.90
-95.84
-90.90
-80.94
-66.68
-49.57
-31.37
-13.78
1.88
14.86
24.94
32.20
36.95
39.57
40.48
40.10
38.92
37.40
35.93
34.78
34.06
33.80
33.96
34.53
35.47
36.76
38.25
39.70
40.81
41.24
40.82
39.51
37.46
34.88
31.94
28.74
25.25
21.37
17.08
12.44
7.67
3.09
-1.00
-4.46
-7.40
-10.12
-13.01
-16.36
-20.19
-24.29
-28.30
-31.98
-35.32
-38.63
-42.41
-47.17
-53.26
-60.65
-68.97
-77.40
-84.83
-89.86
-91.22
-87.92
-79.62
-66.83
-50.76
-33.10
-15.63
0.15
13.32
23.53
30.88
35.72
38.47
39.56
39.41
38.44
37.12
35.77
34.59
33.65
32.89
32.32
32.07
32.33
33.22
34.69
36.43
37.94
38.73
38.51
37.22
35.08
32.43
29.57
26.68
23.84
21.06
18.33
15.66
13.05
10.50
7.95
5.34
2.60
-0.34
-3.55
-7.07
-10.93
-15.07
-19.34
-23.57
-27.62
-31.47
-35.28
-39.27
-43.70
-48.74
-54.49
-60.87
-67.71
-74.60
-80.85
-85.42
-87.06
-84.60
-77.33
-65.33
-49.53
-31.53
-13.21
3.72
18.00
29.01
36.56
40.91
42.53
42.01
40.04
37.32
34.46
31.93
30.01
28.78
28.27
28.38
29.04
30.15
31.61
33.27
34.99
36.56
37.78
38.44
38.34
37.37
35.48
32.75
29.36
25.60
21.70
17.85
14.15
10.59
7.11
3.58
-0.13
-4.14
-8.50
-13.18
-18.04
-22.88
-27.53
-31.89
-36.07
-40.39
-45.25
-51.02
-57.83
-65.40
-73.00
-79.48
-83.49
-83.77
-79.52
-70.58
-57.55
-41.69
-24.58
-7.82
7.25
19.70
29.07
35.27
38.49
39.15
37.85
35.31
32.27
29.41
27.18
25.83
25.43
25.86
26.97
28.62
30.70
33.09
35.58
37.88
39.64
40.54
40.36
39.12
36.97
34.14
30.83
27.19
23.24
19.08
14.80
10.48
6.18
1.86
-2.66
-7.48
-12.68
-18.09
-23.43
-28.35
-32.64
-36.29
-39.56
-42.97
-47.09
-52.49
-59.49
-68.03
-77.45
-86.54
-93.63
-97.00
-95.29
-87.94
-75.34
-58.75
-40.00
-20.91
-3.04
12.61
25.51
35.58
42.96
47.89
50.73
51.84
51.61
50.48
48.87
47.11
45.49
44.19
43.31
42.92
43.09
43.89
45.28
47.10
49.02
50.57
51.28
50.82
49.14
46.46
43.20
39.86
36.74
33.95
31.31
28.53
25.36
21.66
17.51
13.13
8.79
4.63
0.66
-3.31
-7.52
-12.20
-17.42
-23.02
-28.73
-34.27
-39.41
-44.22
-48.95
-54.05
-60.01
-67.16
-75.53
-84.73
-93.88
-101.74
-106.81
-107.69
-103.42
-93.75
-79.24
-61.20
-41.42
-21.76
-3.78
11.47
23.60
32.72
39.27
43.79
46.70
48.35
48.98
48.84
48.23
47.45
46.71
46.16
45.84
45.74
45.90
46.41
47.36
48.73
50.35
51.86
52.85
53.01
52.14
50.31
47.75
44.74
41.53
38.22
34.80
31.23
27.49
23.56
19.52
15.41
11.34
7.38
3.67
0.27
-2.86
-5.83
-8.91
-12.38
-16.43
-21.11
-26.27
-31.64
-36.90
-41.80
-46.25
-50.39
-54.60
-59.42
-65.40
-72.76
-81.15
-89.49
-96.15
-99.27
-97.33
-89.64
-76.57
-59.47
-40.31
-21.12
-3.56
11.30
23.02
31.65
37.51
41.07
42.83
43.32
43.04
42.46
41.92
41.63
41.71
42.13
42.91
44.05
45.56
47.38
49.32
51.11
52.41
52.94
52.57
51.29
49.25
46.65
43.72
40.59
37.28
33.74
29.88
25.66
21.13
16.54
12.17
8.27
4.90
1.93
-1.00
-4.20
-7.89
-12.02
-16.36
-20.62
-24.59
-28.31
-32.02
-36.09
-40.96
-46.91
-54.03
-62.05
-70.44
-78.25
-84.30
-87.35
-86.23
-80.27
-69.41
-54.42
-36.77
-18.32
-0.93
13.96
25.59
33.91
39.30
42.39
43.76
43.86
43.03
41.55
39.78
38.10
36.86
36.32
36.54
37.47
38.98
40.92
43.09
45.29
47.21
48.49
48.83
48.02
46.10
43.27
39.88
36.31
32.86
29.70
26.83
24.15
21.43
18.39
14.87
10.87
6.58
2.29
-1.76
-5.55
-9.27
-13.22
-17.67
-22.63
-27.90
-33.13
-38.03
-42.52
-46.80
-51.20
-56.08
-61.78
-68.46
-76.13
-84.47
-92.76
-99.79
-104.02
-103.96
-98.59
-87.83
-72.53
-54.32
-35.08
-16.52
0.18
14.37
25.86
34.63
40.84
44.70
46.57
46.93
46.38
45.44
44.54
43.88
43.47
43.25
43.17
43.25
43.58
44.29
45.39
46.80
48.25
49.31
49.55
48.64
46.49
43.35
39.68
35.99
32.62
29.66
26.86
23.94
20.60
16.79
12.62
8.32
4.10
0.11
-3.61
-7.11
-10.45
-13.80
-17.33
-21.20
-25.51
-30.20
-35.08
-39.92
-44.57
-49.05
-53.67
-58.89
-65.18
-72.77
-81.44
-90.36
-98.20
-103.35
-104.28
-99.98
-90.18
-75.54
-57.50
-38.03
-19.11
-2.34
11.39
21.90
29.59
35.04
38.72
40.93
41.81
41.62
40.74
39.69
38.93
38.70
38.91
39.32
39.75
40.13
40.65
41.54
42.89
44.58
46.28
47.52
47.95
47.40
45.90
43.73
41.16
38.48
35.86
33.31
30.70
27.88
24.62
20.79
16.44
11.76
7.14
2.95
-0.56
-3.42
-5.93
-8.63
-11.99
-16.23
-21.21
-26.55
-31.79
-36.62
-41.00
-45.10
-49.29
-53.91
-59.27
-65.44
-72.20
-78.93
-84.53
-87.60
-86.77
-81.13
-70.63
-56.10
-39.08
-21.40
-4.67
9.95
21.81
30.66
36.54
39.58
40.12
38.71
36.08
33.06
30.38
28.53
27.65
27.64
28.32
29.49
31.12
33.19
35.61
38.12
40.27
41.60
41.76
40.74
38.80
36.36
33.78
31.22
28.56
25.56
22.04
17.99
13.60
9.16
4.96
1.04
-2.68
-6.42
-10.37
-14.58
-19.00
-23.46
-27.84
-32.10
-36.31
-40.64
-45.24
-50.29
-55.91
-62.24
-69.25
-76.59
-83.44
-88.54
-90.42
-87.82
-80.14
-67.70
-51.67
-33.77
-15.79
0.77
14.95
26.31
34.75
40.46
43.72
44.92
44.54
43.09
41.03
38.82
36.78
35.15
34.15
33.96
34.68
36.33
38.71
41.49
44.23
46.54
48.16
48.94
48.86
47.90
46.09
43.47
40.23
36.58
32.75
28.91
25.04
21.07
16.86
12.43
7.86
3.30
-1.14
-5.53
-9.98
-14.69
-19.73
-24.99
-30.21
-35.13
-39.63
-43.82
-47.99
-52.49
-57.66
-63.73
-70.77
-78.67
-86.96
-94.78
-100.77
-103.39
-101.25
-93.66
-80.89
-64.16
-45.29
-26.17
-8.33
7.24
20.07
30.04
37.20
41.78
44.07
44.59
43.90
42.65
41.40
40.51
40.19
40.45
41.18
42.20
43.36
44.59
45.89
47.24
48.59
49.78
50.56
50.65
49.85
48.13
45.63
42.57
39.21
35.76
32.30
28.82
25.19
21.24
16.87
12.08
7.07
2.11
-2.57
-6.87
-10.93
-15.03
-19.45
-24.33
-29.55
-34.85
-39.95
-44.71
-49.24
-53.92
-59.14
-65.26
-72.42
-80.42
-88.64
-96.09
-101.45
-103.30
-100.45
-92.31
-79.18
-62.24
-43.27
-24.19
-6.62
8.46
20.69
30.12
37.00
41.58
44.14
45.04
44.75
43.81
42.71
41.77
41.18
40.98
41.23
41.97
43.26
45.03
47.05
48.94
50.29
50.81
50.40
49.24
47.57
45.67
43.65
41.52
39.12
36.29
32.87
28.81
24.22
19.32
14.39
9.70
5.40
1.44
-2.37
-6.27
-10.47
-14.97
-19.69
-24.41
-28.99
-33.40
-37.77
-42.35
-47.44
-53.31
-59.97
-67.19
-74.29
-80.29
-83.88
-83.80
-79.12
-69.53
-55.56
-38.45
-19.99
-2.06
13.80
26.58
35.88
41.77
44.61
44.90
43.29
40.49
37.26
34.31
32.11
30.84
30.34
30.31
30.51
30.87
31.44
32.33
33.54
34.81
35.75
35.92
35.01
32.95
29.92
26.24
22.28
18.27
14.34
10.51
6.71
2.81
-1.31
-5.73
-10.50
-15.51
-20.54
-25.31
-29.62
-33.46
-37.12
-41.12
-46.04
-52.26
-59.70
-67.70
-75.05
-80.29
-82.02
-79.29
-71.86
-60.19
-45.39
-28.95
-12.33
3.14
16.51
27.15
34.81
39.53
41.58
41.42
39.73
37.22
34.66
32.59
31.36
30.99
31.28
31.92
32.64
33.31
33.96
34.70
35.52
36.32
36.79
36.57
35.39
33.15
29.98
26.16
22.04
17.89
13.82
9.77
5.53
0.86
-4.44
-10.36
-16.74
-23.21
-29.31
-34.70
-39.32
-43.40
-47.50
-52.31
-58.43
-66.11
-75.08
-84.45
-92.81
-98.49
-99.95
-96.18
-86.98
-72.99
-55.59
-36.57
-17.73
-0.58
13.89
25.25
33.54
39.15
42.62
44.49
45.25
45.26
44.80
44.14
43.51
43.13
43.10
43.47
44.17
45.12
46.22
47.38
48.48
49.36
49.78
49.54
48.52
46.74
44.35
41.55
38.49
35.22
31.71
27.92
23.86
19.65
15.45
11.40
7.50
3.61
-0.51
-5.14
-10.42
-16.34
-22.66
-29.06
-35.28
-41.16
-46.84
-52.62
-58.93
-66.20
-74.67
-84.24
-94.29
-103.61
-110.53
-113.24
-110.32
-101.23
-86.52
-67.78
-47.17
-26.84
-8.37
7.44
20.52
31.13
39.54
45.91
50.19
52.43
52.85
51.89
50.18
48.35
46.88
46.05
45.91
46.38
47.29
48.48
49.82
51.16
52.35
53.18
53.37
52.72
51.11
48.61
45.46
41.98
38.46
35.10
31.88
28.71
25.42
21.93
18.23
14.45
10.77
7.44
4.56
2.16
0.06
-2.07
-4.61
-7.90
-12.08
-17.05
-22.52
-28.15
-33.67
-39.03
-44.46
-50.31
-57.03
-64.90
-73.91
-83.65
-93.22
-101.31
-106.34
-106.84
-101.84
-91.17
-75.62
-56.75
-36.51
-16.81
0.87
15.66
27.17
35.48
40.86
43.75
44.77
44.56
43.82
43.11
42.76
42.92
43.53
44.52
45.81
47.39
49.26
51.34
53.45
55.30
56.63
57.21
56.97
55.93
54.15
51.71
48.72
45.31
41.61
37.77
33.86
29.82
25.58
21.07
16.35
11.62
7.21
3.31
-0.08
-3.23
-6.54
-10.31
-14.66
-19.44
-24.34
-29.12
-33.72
-38.30
-43.25
-48.97
-55.78
-63.76
-72.57
-81.47
-89.20
-94.23
-95.04
-90.60
-80.68
-66.01
-48.11
-28.88
-10.16
6.66
20.73
31.74
39.75
44.96
47.70
48.36
47.45
45.56
43.33
41.36
40.08
39.67
40.14
41.31
42.92
44.73
46.58
48.34
49.92
51.17
51.92
51.95
51.15
49.48
47.09
44.18
40.94
37.48
33.81
29.84
25.47
20.68
15.57
10.36
5.30
0.58
-3.81
-8.01
-12.31
-16.99
-22.20
-27.87
-33.78
-39.59
-45.04
-49.99
-54.54
-59.02
-63.93
-69.81
-76.98
-85.33
-94.11
-101.97
-107.19
-108.12
-103.64
-93.54
-78.54
-60.14
-40.19
-20.47
-2.36
13.30
26.14
36.11
43.36
48.12
50.73
51.65
51.44
50.64
49.68
48.81
48.08
47.50
47.10
46.97
47.25
48.08
49.42
51.07
52.71
53.91
54.32
53.63
51.77
48.80
44.99
40.72
36.35
32.11
28.10
24.19
20.26
16.19
11.99
7.80
3.74
-0.03
-3.47
-6.69
-9.88
-13.29
-17.12
-21.43
-26.15
-31.13
-36.20
-41.30
-46.48
-51.95
-57.99
-64.86
-72.74
-81.52
-90.77
-99.63
-106.87
-111.01
-110.67
-104.91
-93.61
-77.57
-58.41
-38.17
-18.81
-1.76
12.28
23.22
31.40
37.21
40.98
42.97
43.49
42.99
42.12
41.50
41.49
42.15
43.20
44.30
45.21
45.94
46.69
47.66
48.84
50.00
50.74
50.72
49.74
47.91
45.46
42.63
39.57
36.26
32.63
28.64
24.33
19.82
15.28
10.88
6.72
2.90
-0.59
-3.81
-6.91
-10.09
-13.49
-17.16
-20.99
-24.81
-28.47
-32.00
-35.63
-39.75
-44.79
-51.07
-58.70
-67.41
-76.50
-84.79
-90.78
-92.96
-90.18
-82.01
-68.93
-52.23
-33.69
-15.16
1.82
16.25
27.66
36.02
41.53
44.45
45.12
43.91
41.31
37.96
34.60
31.92
30.38
30.16
31.13
32.93
35.13
37.37
39.35
40.92
41.94
42.31
41.97
40.89
39.06
36.55
33.42
29.78
25.76
21.55
17.29
13.13
9.13
5.23
1.33
-2.69
-6.93
-11.32
-15.76
-20.07
-24.18
-28.09
-31.97
-36.02
-40.53
-45.79
-52.02
-59.33
-67.57
-76.09
-83.82
-89.32
-91.08
-87.96
-79.58
-66.49
-50.05
-32.05
-14.31
1.76
15.29
25.92
33.66
38.71
41.35
41.97
41.06
39.25
37.13
35.24
33.95
33.41
33.62
34.44
35.72
37.28
38.98
40.68
42.30
43.68
44.66
45.04
44.63
43.35
41.18
38.26
34.71
30.65
26.16
21.31
16.21
11.03
5.89
0.83
-4.25
-9.48
-14.97
-20.68
-26.43
-31.99
-37.22
-42.19
-47.12
-52.35
-58.19
-64.91
-72.57
-80.99
-89.59
-97.37
-102.87
-104.57
-101.23
-92.31
-78.33
-60.65
-41.19
-21.88
-4.27
10.74
22.82
32.07
38.79
43.30
45.92
47.00
46.92
46.07
44.82
43.51
42.36
41.59
41.36
41.78
42.87
44.54
46.52
48.45
49.91
50.50
50.05
48.58
46.24
43.29
39.97
36.41
32.74
28.99
25.20
21.36
17.41
13.28
8.92
4.28
-0.57
-5.55
-10.60
-15.72
-20.98
-26.44
-32.07
-37.72
-43.24
-48.55
-53.83
-59.45
-65.85
-73.30
-81.69
-90.41
-98.32
-103.93
-105.71
-102.52
-93.90
-80.31
-63.02
-43.79
-24.47
-6.51
9.16
22.14
32.35
39.77
44.51
46.77
46.98
45.79
43.97
42.21
40.91
40.21
40.01
40.19
40.70
41.59
42.87
44.47
46.18
47.70
48.69
48.94
48.36
47.02
45.03
42.58
39.79
36.76
33.47
29.93
26.11
22.07
17.92
13.83
9.92
6.20
2.58
-1.16
-5.21
-9.71
-14.67
-19.93
-25.28
-30.44
-35.22
-39.62
-43.84
-48.28
-53.43
-59.65
-67.01
-75.00
-82.61
-88.36
-90.64
-88.17
-80.33
-67.44
-50.72
-32.02
-13.32
3.70
17.93
28.93
36.72
41.54
43.69
43.53
41.49
38.17
34.30
30.71
28.06
26.77
26.94
28.42
30.90
34.01
37.42
40.78
43.76
46.05
47.33
47.39
46.21
43.85
40.56
36.62
32.33
27.92
23.52
19.18
14.88
10.49
5.88
0.89
-4.52
-10.25
-16.10
-21.81
-27.15
-32.00
-36.43
-40.67
-45.11
-50.21
-56.36
-63.70
-71.94
-80.28
-87.41
-91.76
-91.90
-86.97
-76.88
-62.44
-45.06
-26.46
-8.31
8.10
21.93
32.81
40.71
45.79
48.35
48.79
47.63
45.47
42.98
40.73
39.13
38.29
38.14
38.46
39.08
39.89
40.86
41.89
42.79
43.28
43.10
42.10
40.33
37.99
35.27
32.31
29.11
25.61
21.81
17.72
13.40
8.89
4.17
-0.86
-6.29
-12.09
-18.06
-23.93
-29.47
-34.59
-39.40
-44.14
-49.05
-54.42
-60.44
-67.32
-75.09
-83.56
-92.03
-99.29
-103.82
-104.07
-99.00
-88.41
-73.06
-54.49
-34.60
-15.24
2.14
16.66
28.02
36.35
42.07
45.70
47.80
48.80
49.10
49.01
48.74
48.49
48.38
48.51
48.93
49.72
50.85
52.27
53.82
55.26
56.28
56.62
56.10
54.61
52.24
49.15
45.61
41.87
38.05
34.19
30.21
25.96
21.34
16.35
11.05
5.58
0.07
-5.42
-10.84
-16.16
-21.32
-26.26
-30.96
-35.48
-40.00
-44.76
-50.09
-56.30
-63.67
-72.32
-82.08
-92.31
-101.84
-109.06
-112.16
-109.73
-101.10
-86.75
-68.10
-47.24
-26.30
-7.01
9.54
22.91
33.06
40.20
44.59
46.62
46.78
45.69
43.99
42.29
41.00
40.34
40.34
40.91
41.98
43.49
45.43
47.75
50.30
52.79
54.80
55.91
55.79
54.39
51.93
48.80
45.39
41.97
38.58
35.11
31.41
27.32
22.86
18.08
13.13
8.18
3.33
-1.38
-6.00
-10.64
-15.45
-20.44
-25.57
-30.71
-35.80
-40.84
-46.02
-51.65
-58.07
-65.52
-74.03
-83.22
-92.28
-99.94
-104.67
-104.94
-99.72
-88.75
-72.82
-53.49
-32.78
-12.66
5.38
20.42
32.09
40.41
45.57
47.92
47.95
46.34
43.85
41.28
39.22
38.00
37.75
38.37
39.63
41.29
43.09
44.85
46.42
47.71
48.58
48.87
48.37
46.89
44.39
41.03
37.11
32.94
28.73
24.53
20.28
15.95
11.54
7.17
2.87
-1.37
-5.69
-10.23
-15.03
-20.02
-24.98
-29.79
-34.41
-39.08
-44.18
-50.11
-57.18
-65.40
-74.35
-83.09
-90.27
-94.26
-93.56
-87.23
-75.26
-58.68
-39.33
-19.37
-0.74
15.24
27.95
37.32
43.58
46.99
47.91
46.80
44.33
41.29
38.44
36.42
35.51
35.77
37.04
39.03
41.41
43.82
45.94
47.53
48.42
48.56
47.89
46.35
43.89
40.47
36.22
31.31
26.07
20.82
15.78
11.04
6.51
1.98
-2.82
-8.05
-13.76
-19.74
-25.72
-31.40
-36.60
-41.36
-45.94
-50.72
-56.13
-62.53
-70.13
-78.95
-88.63
-98.38
-106.94
-112.73
-114.16
-110.03
-99.93
-84.38
-64.83
-43.25
-21.67
-1.82
15.17
28.79
39.04
46.15
50.55
52.73
53.26
52.80
51.93
51.12
50.54
50.18
49.92
49.79
49.97
50.73
52.26
54.42
56.85
58.94
60.14
60.14
58.91
56.63
53.50
49.74
45.48
40.81
35.85
30.74
25.60
20.54
15.61
10.82
6.13
1.47
-3.30
-8.31
-13.69
-19.43
-25.41
-31.45
-37.34
-43.00
-48.52
-54.19
-60.47
-67.82
-76.57
-86.68
-97.46
-107.59
-115.22
-118.39
-115.68
-106.57
-91.70
-72.60
-51.30
-29.83
-9.81
7.65
22.05
33.32
41.73
47.76
51.91
54.62
56.20
56.86
56.80
56.25
55.51
54.84
54.45
54.41
54.77
55.48
56.53
57.85
59.30
60.62
61.54
61.70
60.84
58.86
55.86
52.14
48.10
44.10
40.35
36.85
33.40
29.76
25.78
21.36
16.62
11.74
6.96
2.50
-1.51
-5.10
-8.50
-12.12
-16.38
-21.51
-27.46
-33.84
-40.17
-46.06
-51.45
-56.62
-61.99
-68.06
-75.11
-83.20
-92.12
-101.27
-109.61
-115.73
-117.98
-114.96
-105.92
-91.12
-71.84
-50.06
-27.95
-7.35
10.46
24.90
35.87
43.57
48.34
50.64
51.01
50.09
48.56
47.06
46.02
45.65
45.92
46.70
47.85
49.27
50.93
52.76
54.58
56.08
56.93
56.85
55.67
53.48
50.46
46.87
42.90
38.68
34.27
29.70
24.99
20.23
15.51
10.91
6.50
2.30
-1.75
-5.74
-9.78
-13.93
-18.17
-22.47
-26.78
-31.19
-35.86
-41.08
-47.11
-54.10
-62.01
-70.46
-78.72
-85.72
-90.11
-90.49
-85.81
-75.70
-60.74
-42.33
-22.45
-3.13
13.99
27.95
38.41
45.55
49.78
51.53
51.21
49.23
46.09
42.41
38.82
35.92
34.04
33.28
33.54
34.55
36.03
37.74
39.39
40.73
41.51
41.53
40.67
38.92
36.29
32.87
28.77
24.25
19.64
15.29
11.41
7.93
4.53
0.74
-3.78
-9.08
-14.91
-20.84
-26.45
-31.57
-36.24
-40.75
-45.47
-50.79
-57.06
-64.50
-73.15
-82.71
-92.45
-101.04
-106.86
-108.22
-103.93
-93.69
-78.25
-59.23
-38.69
-18.59
-0.41
15.07
27.55
37.12
43.99
48.41
50.70
51.25
50.54
49.11
47.45
45.93
44.82
44.24
44.21
44.71
45.71
47.06
48.59
50.04
51.11
51.52
51.08
49.76
47.59
44.69
41.15
37.03
32.36
27.23
21.79
16.26
10.82
5.52
0.28
-5.11
-10.87
-17.07
-23.55
-30.06
-36.23
-41.84
-46.82
-51.39
-55.96
-61.06
-67.24
-74.81
-83.76
-93.47
-102.77
-109.93
-113.09
-110.71
-102.12
-87.74
-69.08
-48.28
-27.53
-8.56
7.59
20.63
30.66
38.02
43.01
45.92
47.07
46.82
45.60
43.88
42.10
40.57
39.60
39.34
39.86
41.11
42.93
45.07
47.24
49.14
50.50
51.12
50.82
49.53
47.28
44.19
40.44
36.21
31.70
27.02
22.28
17.45
12.49
7.26
1.69
-4.24
-10.36
-16.48
-22.34
-27.75
-32.65
-37.08
-41.24
-45.42
-50.03
-55.52
-62.32
-70.61
-80.08
-89.81
-98.28
-103.69
-104.39
-99.35
-88.51
-72.75
-53.74
-33.48
-13.83
3.74
18.35
29.65
37.67
42.68
45.07
45.36
44.15
42.11
39.93
38.17
37.21
37.17
37.97
39.36
41.10
42.99
44.91
46.77
48.44
49.76
50.48
50.32
49.07
46.68
43.25
39.06
34.45
29.74
25.12
20.63
16.21
11.69
6.90
1.73
-3.87
-9.81
-15.92
-22.01
-27.92
-33.60
-39.13
-44.80
-50.95
-57.92
-65.87
-74.59
-83.35
-90.90
-95.58
-95.83
-90.48
-79.34
-63.22
-43.80
-23.15
-3.23
14.49
29.17
40.51
48.49
53.29
55.20
54.70
52.45
49.29
46.07
43.49
41.92
41.42
41.83
42.86
44.24
45.81
47.45
48.99
50.17
50.68
50.25
48.78
46.36
43.28
39.79
36.09
32.19
28.04
23.53
18.63
13.40
7.97
2.45
-3.12
-8.76
-14.47
-20.21
-25.88
-31.36
-36.56
-41.49
-46.27
-51.12
-56.37
-62.39
-69.55
-78.06
-87.84
-98.23
-107.98
-115.36
-118.53
-116.01
-107.22
-92.63
-73.69
-52.42
-30.85
-10.63
7.23
22.24
34.34
43.59
50.08
53.99
55.66
55.66
54.74
53.64
52.91
52.76
53.13
53.80
54.60
55.49
56.52
57.71
58.95
59.93
60.25
59.58
57.74
54.83
51.14
47.05
42.88
38.78
34.71
30.49
25.93
20.92
15.54
9.96
4.42
-0.94
-6.13
-11.32
-16.76
-22.60
-28.88
-35.41
-41.90
-48.12
-54.01
-59.85
-66.15
-73.55
-82.39
-92.52
-103.05
-112.38
-118.61
-119.95
-115.27
-104.38
-88.13
-68.17
-46.54
-25.18
-5.57
11.38
25.32
36.24
44.33
49.79
52.91
54.09
53.89
53.04
52.17
51.76
51.88
52.41
53.15
54.07
55.31
57.11
59.54
62.34
64.91
66.56
66.68
65.11
62.07
58.08
53.77
49.52
45.51
41.58
37.41
32.74
27.46
21.73
15.93
10.45
5.58
1.33
-2.58
-6.56
-10.96
-15.98
-21.52
-27.32
-33.08
-38.60
-43.88
-49.09
-54.59
-60.76
-67.95
-76.35
-85.84
-95.86
-105.35
-112.75
-116.25
-114.31
-106.04
-91.64
-72.38
-50.28
-27.65
-6.49
11.78
26.41
37.20
44.31
48.19
49.42
48.77
47.06
45.05
43.37
42.39
42.23
42.83
44.06
45.74
47.72
49.82
51.86
53.61
54.82
55.24
54.71
53.22
50.89
47.99
44.79
41.49
38.15
34.67
30.92
26.80
22.32
17.58
12.72
7.82
2.85
-2.26
-7.59
-13.12
-18.71
-24.14
-29.23
-33.92
-38.32
-42.66
-47.28
-52.55
-58.78
-66.13
-74.48
-83.19
-91.04
-96.40
-97.56
-93.27
-83.18
-67.97
-49.23
-28.92
-8.93
9.34
24.99
37.58
46.94
53.10
56.31
57.07
56.09
54.18
52.07
50.26
49.03
48.45
48.54
49.27
50.61
52.47
54.74
57.23
59.71
61.91
63.46
63.92
62.94
60.28
56.02
50.54
44.41
38.19
32.25
26.63
21.16
15.64
9.96
4.30
-1.00
-5.63
-9.48
-12.79
-16.09
-19.99
-24.85
-30.66
-37.04
-43.48
-49.63
-55.46
-61.20
-67.25
-73.97
-81.63
-90.35
-100.05
-110.25
-119.92
-127.43
-130.80
-128.26
-118.85
-102.85
-81.79
-57.95
-33.78
-11.29
8.25
24.29
36.82
46.10
52.50
56.38
58.22
58.53
57.89
56.91
56.07
55.67
55.83
56.50
57.55
58.90
60.57
62.54
64.71
66.78
68.30
68.76
67.83
65.40
61.71
57.14
52.14
47.07
42.11
37.35
32.75
28.26
23.78
19.27
14.67
9.99
5.32
0.75
-3.65
-7.89
-12.11
-16.58
-21.54
-27.15
-33.46
-40.29
-47.36
-54.33
-60.94
-67.09
-72.94
-78.91
-85.57
-93.44
-102.64
-112.68
-122.27
-129.51
-132.29
-128.95
-118.79
-102.38
-81.41
-58.18
-34.97
-13.51
5.21
20.87
33.52
43.34
50.47
55.05
57.35
57.81
57.05
55.75
54.54
53.82
53.73
54.21
55.03
55.97
56.93
57.87
58.80
59.64
60.15
59.98
58.78
56.39
52.91
48.66
44.05
39.42
34.95
30.62
26.38
22.16
17.97
13.88
9.97
6.31
2.85
-0.53
-4.01
-7.74
-11.83
-16.27
-20.95
-25.74
-30.48
-35.10
-39.67
-44.38
-49.57
-55.67
-63.03
-71.69
-81.17
-90.39
-97.75
-101.44
-99.90
-92.29
-78.76
-60.53
-39.50
-17.87
2.38
19.85
33.78
43.93
50.42
53.52
53.65
51.40
47.59
43.16
39.02
35.87
34.09
33.72
34.55
36.29
38.53
40.92
43.13
44.89
46.02
46.43
46.08
44.94
43.02
40.31
36.89
32.87
28.40
23.61
18.59
13.36
7.94
2.34
-3.42
-9.32
-15.33
-21.39
-27.40
-33.24
-38.77
-43.91
-48.77
-53.62
-58.89
-65.06
-72.48
-81.18
-90.69
-99.94
-107.33
-111.05
-109.52
-101.84
-88.15
-69.60
-48.16
-26.04
-5.19
13.02
27.94
39.45
47.77
53.20
56.10
56.83
55.86
53.79
51.27
48.91
47.15
46.15
45.92
46.31
47.23
48.64
50.50
52.70
54.93
56.78
57.72
57.40
55.66
52.65
48.72
44.27
39.69
35.16
30.67
26.02
21.00
15.46
9.46
3.32
-2.58
-7.94
-12.73
-17.21
-21.80
-26.84
-32.43
-38.36
-44.30
-49.94
-55.17
-60.17
-65.32
-71.10
-77.93
-86.09
-95.54
-105.72
-115.47
-123.09
-126.66
-124.51
-115.76
-100.70
-80.67
-57.77
-34.31
-12.25
7.04
22.89
35.22
44.25
50.34
53.86
55.23
54.90
53.45
51.52
49.68
48.38
47.79
47.94
48.73
50.09
51.98
54.33
56.93
59.43
61.34
62.18
61.66
59.73
56.61
52.67
48.32
43.91
39.62
35.50
31.44
27.24
22.70
17.72
12.36
6.85
1.51
-3.41
-7.81
-11.81
-15.73
-19.85
-24.39
-29.33
-34.51
-39.74
-44.90
-50.04
-55.39
-61.22
-67.83
-75.44
-84.11
-93.62
-103.32
-112.06
-118.20
-119.98
-115.92
-105.42
-88.97
-68.16
-45.19
-22.30
-1.28
16.75
31.32
42.33
49.88
54.16
55.58
54.73
52.46
49.68
47.15
45.37
44.53
44.60
45.43
46.94
49.01
51.52
54.20
56.67
58.51
59.35
58.99
57.44
54.87
51.54
47.62
43.23
38.42
33.26
27.90
22.53
17.31
12.32
7.49
2.68
-2.30
-7.59
-13.20
-19.08
-25.06
-31.00
-36.78
-42.36
-47.78
-53.20
-58.90
-65.24
-72.51
-80.79
-89.57
-97.76
-103.68
-105.47
-101.68
-91.70
-76.09
-56.37
-34.60
-12.80
7.39
24.85
38.98
49.45
56.17
59.34
59.45
57.31
53.90
50.22
47.02
44.75
43.52
43.26
43.77
44.92
46.58
48.67
51.02
53.33
55.19
56.18
55.95
54.43
51.78
48.36
44.53
40.56
36.52
32.33
27.82
22.91
17.66
12.19
6.66
1.14
-4.38
-9.99
-15.74
-21.60
-27.49
-33.32
-39.01
-44.59
-50.15
-55.81
-61.78
-68.34
-75.85
-84.65
-94.82
-105.90
-116.71
-125.39
-129.82
-128.21
-119.74
-104.78
-84.89
-62.29
-39.33
-17.89
0.80
16.18
28.14
36.81
42.48
45.54
46.58
46.33
45.59
45.08
45.28
46.39
48.38
51.10
54.38
58.10
62.11
66.22
70.10
73.32
75.46
76.21
75.44
73.22
69.78
65.40
60.41
55.11
49.75
44.44
39.20
33.91
28.39
22.52
16.31
9.94
3.70
-2.16
-7.58
-12.69
-17.82
-23.28
-29.17
-35.36
-41.55
-47.39
-52.75
-57.74
-62.81
-68.59
-75.65
-84.30
-94.40
-105.19
-115.31
-122.94
-126.16
-123.38
-113.82
-97.79
-76.69
-52.69
-28.25
-5.52
14.02
29.67
41.35
49.36
54.18
56.33
56.43
55.16
53.23
51.27
49.74
48.86
48.70
49.23
50.37
52.04
54.16
56.54
58.92
60.96
62.29
62.57
61.57
59.28
55.89
51.70
47.08
42.24
37.31
32.26
27.05
21.72
16.38
11.13
5.96
0.73
-4.73
-10.53
-16.61
-22.70
-28.50
-33.78
-38.47
-42.79
-47.15
-52.06
-58.06
-65.51
-74.42
-84.22
-93.72
-101.19
-104.69
-102.63
-94.19
-79.65
-60.38
-38.46
-16.12
4.70
22.69
37.18
47.94
54.99
58.51
58.87
56.67
52.84
48.52
44.77
42.33
41.42
41.84
43.09
44.71
46.40
48.03
49.54
50.75
51.44
51.31
50.16
47.93
44.72
40.70
36.05
30.95
25.53
19.95
14.33
8.73
3.12
-2.63
-8.62
-14.86
-21.19
-27.27
-32.81
-37.67
-42.01
-46.29
-51.10
-57.03
-64.37
-73.15
-82.89
-92.74
-101.37
-107.15
-108.44
-103.95
-93.21
-76.75
-56.10
-33.37
-10.74
9.98
27.63
41.71
52.17
59.22
63.20
64.52
63.72
61.41
58.31
55.09
52.32
50.40
49.51
49.61
50.51
51.88
53.38
54.67
55.50
55.69
55.14
53.80
51.65
48.65
44.86
40.37
35.39
30.19
24.96
19.83
14.77
9.63
4.26
-1.47
-7.59
-14.06
-20.75
-27.50
-34.13
-40.43
-46.27
-51.65
-56.79
-62.17
-68.45
-76.24
-85.82
-96.81
-108.04
-117.62
-123.39
-123.38
-116.48
-102.76
-83.46
-60.64
-36.65
-13.55
7.17
24.73
38.85
49.58
57.13
61.75
63.89
64.09
63.03
61.36
59.63
58.14
57.01
56.26
55.96
56.24
57.22
58.92
61.10
63.30
64.93
65.48
64.69
62.62
59.55
55.82
51.76
47.53
43.19
38.70
33.98
28.98
23.67
18.09
12.39
6.78
1.50
-3.31
-7.66
-11.79
-16.05
-20.85
-26.45
-32.86
-39.83
-46.95
-53.84
-60.33
-66.53
-72.86
-79.94
-88.36
-98.34
-109.53
-120.79
-130.25
-135.65
-134.93
-126.86
-111.51
-90.27
-65.48
-39.73
-15.24
6.48
24.71
39.27
50.19
57.64
61.94
63.60
63.33
62.01
60.43
59.12
58.35
58.08
58.20
58.62
59.30
60.30
61.68
63.36
65.05
66.29
66.58
65.49
62.91
59.06
54.39
49.48
44.74
40.37
36.26
32.21
28.03
23.67
19.24
14.95
10.92
7.11
3.28
-0.88
-5.67
-11.24
-17.51
-24.17
-30.84
-37.13
-42.90
-48.27
-53.68
-59.74
-67.02
-75.84
-85.99
-96.67
-106.39
-113.24
-115.31
-111.16
-100.29
-83.34
-62.00
-38.51
-15.25
5.92
23.77
37.77
47.89
54.36
57.59
58.14
56.68
54.03
51.02
48.39
46.62
45.89
46.12
47.03
48.36
49.96
51.77
53.77
55.80
57.50
58.38
57.96
56.06
52.86
48.81
44.53
40.42
36.59
32.81
28.75
24.19
19.15
13.92
8.86
4.23
0.04
-4.00
-8.32
-13.34
-19.30
-26.13
-33.51
-40.98
-48.09
-54.62
-60.65
-66.53
-72.89
-80.34
-89.29
-99.61
-110.47
-120.27
-126.92
-128.34
-123.01
-110.56
-91.89
-68.99
-44.32
-20.25
1.44
19.77
34.39
45.33
52.84
57.23
58.98
58.75
57.29
55.36
53.52
52.06
51.04
50.37
50.04
50.10
50.71
51.93
53.68
55.64
57.34
58.26
58.00
56.37
53.45
49.56
45.16
40.69
36.41
32.32
28.19
23.67
18.55
12.88
6.99
1.31
-3.87
-8.57
-13.14
-18.00
-23.49
-29.65
-36.19
-42.74
-48.90
-54.55
-59.74
-64.72
-69.88
-75.67
-82.55
-90.81
-100.32
-110.28
-119.07
-124.55
-124.58
-117.72
-103.84
-84.20
-61.08
-37.10
-14.53
5.17
21.37
34.02
43.37
49.73
53.42
54.85
54.56
53.19
51.35
49.51
47.93
46.73
45.95
45.68
46.01
47.08
48.87
51.21
53.69
55.81
57.05
57.06
55.75
53.27
49.94
46.13
42.08
37.91
33.53
28.81
23.63
18.00
12.16
6.51
1.47
-2.77
-6.33
-9.62
-13.21
-17.54
-22.69
-28.36
-34.05
-39.34
-44.12
-48.70
-53.63
-59.56
-66.92
-75.78
-85.66
-95.48
-103.67
-108.38
-107.90
-101.16
-88.12
-69.86
-48.31
-25.81
-4.48
14.06
28.94
39.89
47.08
50.89
51.80
50.46
47.54
43.88
40.27
37.43
35.79
35.45
36.24
37.81
39.85
42.14
44.55
46.90
48.96
50.36
50.76
49.89
47.66
44.20
39.76
34.64
29.15
23.56
18.05
12.71
7.55
2.44
-2.74
-8.11
-13.68
-19.33
-24.88
-30.11
-34.87
-39.19
-43.28
-47.49
-52.28
-58.14
-65.48
-74.40
-84.48
-94.59
-102.91
-107.32
-105.92
-97.76
-83.16
-63.70
-41.74
-19.71
0.44
17.57
31.24
41.48
48.54
52.72
54.39
54.05
52.34
49.99
47.63
45.75
44.60
44.22
44.47
45.21
46.26
47.49
48.77
49.90
50.67
50.79
50.01
48.19
45.29
41.40
36.76
31.59
26.14
20.60
15.07
9.62
4.18
-1.32
-7.02
-13.00
-19.26
-25.65
-31.94
-37.87
-43.30
-48.26
-53.01
-57.96
-63.58
-70.28
-78.37
-87.87
-98.34
-108.73
-117.37
-122.15
-121.12
-113.06
-98.04
-77.49
-53.78
-29.55
-7.02
12.41
28.21
40.38
49.14
54.74
57.47
57.79
56.36
54.00
51.53
49.52
48.24
47.69
47.71
48.13
48.85
49.79
50.94
52.17
53.32
54.14
54.35
53.67
51.92
49.03
45.04
40.13
34.56
28.62
22.57
16.65
10.96
5.52
0.17
-5.33
-11.21
-17.60
-24.44
-31.48
-38.38
-44.89
-50.89
-56.58
-62.32
-68.64
-76.03
-84.76
-94.66
-104.96
-114.23
-120.58
-122.10
-117.33
-105.83
-88.27
-66.37
-42.45
-18.83
2.60
20.67
34.95
45.47
52.60
56.72
58.28
57.77
55.83
53.24
50.76
49.00
48.28
48.50
49.40
50.59
51.87
53.18
54.56
56.05
57.47
58.49
58.65
57.54
54.92
50.83
45.56
39.57
33.36
27.27
21.44
15.80
10.14
4.29
-1.84
-8.16
-14.52
-20.68
-26.46
-31.76
-36.68
-41.44
-46.49
-52.36
-59.50
-68.10
-77.79
-87.52
-95.59
-100.00
-98.94
-91.41
-77.49
-58.41
-36.20
-13.20
8.48
27.32
42.42
53.41
60.26
63.19
62.63
59.32
54.25
48.56
43.30
39.20
36.61
35.46
35.46
36.27
37.58
39.16
40.75
42.09
42.79
42.49
40.94
38.11
34.20
29.57
24.63
19.67
14.71
9.53
3.74
-2.99
-10.69
-19.06
-27.48
-35.26
-41.91
-47.40
-52.15
-56.96
-62.71
-70.08
-79.22
-89.61
-100.03
-108.66
-113.49
-112.71
-105.29
-91.25
-71.78
-48.89
-24.96
-2.23
17.71
33.95
46.25
54.77
59.87
62.02
61.79
59.85
57.02
54.07
51.65
50.09
49.41
49.44
49.94
50.77
51.94
53.45
55.22
56.95
58.13
58.17
56.59
53.24
48.31
42.30
35.85
29.39
23.09
16.71
9.83
2.08
-6.64
-16.00
-25.41
-34.25
-42.13
-49.05
-55.44
-62.02
-69.55
-78.64
-89.42
-101.39
-113.25
-123.10
-128.74
-128.23
-120.46
-105.46
-84.54
-59.91
-34.15
-9.63
11.97
29.78
43.73
54.19
61.71
66.81
69.91
71.37
71.57
70.95
69.96
68.98
68.27
67.93
68.00
68.51
69.47
70.84
72.45
73.98
74.99
75.08
73.93
71.45
67.71
62.93
57.31
51.05
44.29
37.15
29.77
22.33
15.06
8.16
1.73
-4.29
-10.15
-16.11
-22.43
-29.14
-36.06
-42.94
-49.53
-55.82
-62.03
-68.60
-76.05
-84.86
-95.21
-106.73
-118.38
-128.43
-134.64
-134.94
-127.94
-113.51
-92.90
-68.38
-42.63
-18.03
3.78
22.03
36.66
47.91
56.17
61.76
65.02
66.40
66.47
65.81
64.93
64.17
63.67
63.46
63.56
64.10
65.21
66.98
69.24
71.58
73.37
73.99
73.07
70.61
66.89
62.35
57.45
52.53
47.75
43.14
38.57
33.89
28.96
23.73
18.31
12.90
7.70
2.82
-1.85
-6.57
-11.66
-17.35
-23.62
-30.20
-36.69
-42.78
-48.35
-53.61
-59.06
-65.34
-73.04
-82.36
-92.94
-103.60
-112.50
-117.45
-116.45
-108.36
-93.29
-72.67
-48.80
-24.29
-1.40
18.31
34.08
45.69
53.31
57.30
58.21
56.80
53.95
50.63
47.67
45.67
44.85
45.13
46.29
47.99
49.97
52.03
54.03
55.79
57.15
57.89
57.78
56.64
54.43
51.22
47.20
42.61
37.66
32.49
27.15
21.67
16.03
10.27
4.41
-1.52
-7.52
-13.63
-19.79
-25.91
-31.80
-37.33
-42.51
-47.58
-52.96
-59.17
-66.71
-75.86
-86.56
-98.23
-109.68
-119.14
-124.52
-123.88
-116.05
-101.06
-80.31
-56.14
-31.24
-7.91
12.37
29.00
42.01
51.69
58.36
62.33
63.95
63.76
62.42
60.62
58.94
57.73
57.11
57.06
57.47
58.27
59.37
60.63
61.85
62.67
62.71
61.64
59.35
55.97
51.82
47.35
42.84
38.41
33.94
29.20
23.98
18.26
12.18
6.04
0.11
-5.50
-10.83
-16.13
-21.68
-27.65
-34.04
-40.66
-47.24
-53.58
-59.67
-65.72
-72.15
-79.48
-88.14
-98.23
-109.31
-120.18
-128.98
-133.53
-131.85
-122.89
-106.85
-85.22
-60.39
-34.89
-10.86
10.30
27.95
41.93
52.33
59.31
63.21
64.47
63.75
61.81
59.36
56.90
54.78
53.14
52.02
51.47
51.53
52.29
53.79
55.94
58.51
61.01
62.77
63.18
61.84
58.71
54.28
49.22
44.27
39.86
36.04
32.46
28.61
24.07
18.68
12.63
6.34
0.24
-5.36
-10.45
-15.28
-20.27
-25.83
-32.23
-39.44
-47.24
-55.22
-63.01
-70.38
-77.37
-84.29
-91.70
-100.26
-110.44
-122.14
-134.42
-145.41
-152.57
-153.37
-146.07
-130.33
-107.35
-79.54
-49.77
-20.72
5.66
28.19
46.38
60.20
69.97
76.36
80.32
83.09
85.84
89.48
94.39
100.34
106.70
112.70
117.80
121.98
125.69
129.66
134.36
139.61
144.44
147.29
146.71
141.97
133.57
123.12
112.79
104.30
98.31
94.01
89.60
83.08
73.22
60.11
45.16
30.50
18.05
8.72
1.91
-4.29
-12.42
-24.60
-41.65
-62.61
-84.98
-105.54
-121.44
-131.20
-135.29
-135.87
-136.01
-138.38
-143.92
-151.20
-156.46
-154.75
-141.56
-114.43
-73.88
-23.45
31.05
82.94
126.31
157.58
176.33
185.00
187.26
185.73
180.14
167.37
143.35
106.09
58.18
6.83
-38.35
-69.00
-81.03
-75.56
-57.55
-33.28
-8.18
14.00
30.75
40.17
40.69
31.66
14.11
-8.86
-32.66
-52.57
-65.44
-70.83
-70.91
-69.42
-69.75
-73.51
-79.92
-86.57
-90.77
-90.98
-87.66
-82.94
-79.81
-80.91
-87.41
-98.58
-111.82
-123.58
-130.67
-131.52
-126.79
-119.24
-112.38
-108.93
-109.62
-113.03
-116.52
-117.72
-115.72
-111.36
-106.63
-103.43
-102.64
-103.76
-105.39
-106.12
-105.10
-102.32
-98.12
-92.62
-85.17
-74.58
-59.77
-40.64
-18.59
3.70
23.20
37.62
46.08
49.22
48.41
45.04
40.00
33.70
26.35
18.39
10.42
3.04
-3.38
-8.66
-12.38
-13.62
-11.12
-3.90
8.10
23.70
40.95
57.94
73.51
87.42
99.87
110.88
120.08
126.98
131.49
134.24
136.29
138.41
140.41
141.07
138.65
131.78
120.33
105.72
90.75
78.94
73.66
76.92
88.49
105.56
123.48
137.34
143.79
142.24
134.76
124.79
115.57
109.00
105.63
105.36
108.24
114.79
125.52
140.03
156.40
171.08
179.60
177.79
162.95
134.73
95.25
48.73
0.34
-45.24
-85.13
-118.84
-148.07
-175.59
-203.81
-233.81
-264.85
-294.94
-321.63
-343.09
-358.70
-369.13
-375.87
-380.63
-385.00
-390.48
-398.64
-410.80
-427.30
-446.61
-465.24
-478.42
-481.80
-472.99
-452.34
-422.40
-386.47
-347.22
-305.95
-263.03
-218.77
-174.03
-130.21
-88.48
-49.11
-11.26
26.56
65.70
106.63
148.72
190.67
231.07
269.14
305.14
340.16
375.94
414.64
458.69
510.33
570.49
637.29
704.99
764.45
805.40
819.99
805.79
766.74
711.41
649.48
588.29
531.01
477.29
425.19
373.30
321.53
270.52
220.71
171.92
123.90
77.40
34.69
-1.10
-27.29
-43.44
-52.21
-58.73
-68.94
-87.64
-117.21
-157.48
-206.71
-262.89
-324.48
-390.19
-458.04
-524.42
-583.93
-630.29
-658.04
-664.23
-649.21
-616.17
-569.56
-513.39
-450.22
-381.55
-309.06
-235.82
-166.65
-107.13
-61.75
-32.09
-16.06
-8.63
-3.57
4.72
19.69
42.51
72.81
109.71
152.83
202.83
261.30
329.73
407.90
492.14
574.65
644.59
690.96
706.31
689.44
645.61
584.06
514.08
441.75
368.69
293.50
214.10
129.46
39.73
-54.71
-153.67
-256.25
-358.93
-454.33
-532.30
-583.36
-602.63
-592.49
-561.82
-522.42
-484.66
-454.48
-433.07
-418.49
-407.89
-398.75
-388.93
-376.51
-359.87
-338.55
-314.05
-289.38
-267.46
-249.45
-234.02
-218.15
-199.30
-177.49
-156.02
-140.81
-138.66
-155.50
-194.79
-256.24
-334.99
-421.60
-503.46
-567.54
-604.05
-609.09
-585.44
-540.67
-483.74
-421.97
-359.56
-298.06
-237.97
-180.07
-125.56
-75.70
-30.98
9.00
45.03
77.54
106.38
131.07
151.26
167.45
180.99
193.73
207.28
222.37
238.71
255.26
270.99
285.45
299.15
313.22
328.85
346.58
366.20
386.84
407.54
427.90
448.29
470.00
495.08
526.16
565.76
615.18
673.01
734.17
790.40
832.39
852.91
849.51
825.38
787.72
744.75
702.64
664.20
629.42
597.19
566.86
538.63
512.88
489.23
466.15
441.55
413.89
383.02
350.29
318.02
288.23
261.67
237.43
213.24
186.47
155.22
119.00
78.87
36.75
-5.55
-47.15
-88.49
-130.86
-175.64
-223.37
-273.24
-323.30
-371.11
-414.67
-453.11
-486.78
-517.06
-545.94
-575.75
-608.70
-646.10
-687.20
-728.22
-762.49
-782.06
-780.45
-755.24
-709.25
-649.37
-583.97
-519.95
-461.21
-408.91
-362.90
-323.19
-290.33
-264.67
-245.34
-229.81
-214.53
-196.24
-173.19
-145.44
-114.54
-82.44
-50.64
-19.93
9.47
37.36
63.26
86.38
105.84
121.08
132.01
139.06
142.99
144.84
145.66
146.57
148.55
152.32
158.11
165.53
173.55
180.66
185.11
185.11
179.08
165.95
145.47
118.53
87.21
54.23
22.07
-7.86
-35.41
-61.06
-84.80
-105.27
-119.64
-124.64
-117.98
-99.71
-72.46
-40.69
-9.14
18.53
40.45
56.33
66.67
71.93
71.96
66.20
54.31
37.04
16.64
-3.41
-19.28
-28.02
-28.36
-20.76
-6.92
11.10
31.41
52.29
71.71
86.98
94.90
92.53
78.37
53.21
20.20
-16.01
-50.64
-79.95
-101.84
-115.60
-121.23
-119.11
-110.02
-95.67
-78.98
-63.66
-52.89
-47.93
-47.33
-47.32
-43.28
-31.52
-10.36
19.85
57.55
100.75
147.05
193.12
234.20
264.44
278.41
273.04
249.20
211.71
167.85
124.89
87.99
59.09
37.37
20.62
6.68
-5.60
-16.22
-24.60
-30.26
-33.32
-34.32
-33.63
-30.73
-24.29
-12.94
3.53
23.27
42.83
58.55
68.46
73.27
75.99
80.12
87.57
97.34
105.96
109.30
104.70
92.23
74.55
55.38
37.84
23.41
11.97
2.55
-5.63
-12.69
-18.13
-21.44
-22.51
-21.76
-19.71
-16.44
-11.38
-3.57
7.70
22.21
38.51
54.08
66.08
72.16
71.19
63.54
50.90
35.76
20.58
7.08
-3.99
-12.80
-19.90
-25.74
-30.26
-32.95
-33.19
-30.68
-25.75
-19.23
-12.21
-5.71
-0.60
2.50
3.12
0.96
-3.93
-11.11
-19.75
-28.84
-37.42
-44.71
-50.15
-53.32
-53.88
-51.59
-46.43
-38.67
-28.78
-17.36
-5.01
7.67
20.06
31.43
41.01
48.18
52.60
54.30
53.67
51.34
48.01
44.36
40.90
37.95
35.52
33.34
30.85
27.48
22.84
16.95
10.24
3.42
-2.80
-7.95
-12.00
-15.36
-18.80
-23.18
-29.34
-37.72
-48.20
-59.90
-71.33
-80.62
-86.08
-86.70
-82.52
-74.59
-64.69
-54.69
-46.04
-39.48
-35.02
-32.32
-30.95
-30.70
-31.57
-33.69
-37.10
-41.66
-47.08
-53.07
-59.49
-66.32
-73.58
-81.09
-88.26
-94.13
-97.63
-97.97
-95.06
-89.72
-83.53
-78.42
-76.15
-77.69
-82.91
-90.46
-98.13
-103.46
-104.39
-99.78
-89.51
-74.40
-55.91
-35.68
-15.22
4.60
23.66
42.48
61.69
81.22
99.70
114.42
122.23
120.82
110.07
92.28
71.53
52.08
36.82
26.68
20.89
18.02
16.97
17.50
19.92
24.41
30.34
36.13
39.74
39.51
34.93
26.84
17.10
7.81
0.68
-3.43
-4.38
-2.50
1.68
7.44
13.90
20.01
24.77
27.56
28.33
27.44
25.48
22.89
19.89
16.53
12.81
8.76
4.28
-0.89
-7.12
-14.65
-23.28
-32.23
-40.22
-45.91
-48.37
-47.51
-44.10
-39.53
-35.31
-32.55
-31.64
-32.30
-33.76
-35.23
-36.18
-36.49
-36.23
-35.49
-34.21
-32.18
-29.33
-25.77
-21.88
-18.08
-14.67
-11.68
-8.86
-5.76
-1.87
3.20
9.63
17.21
25.31
32.89
38.79
42.10
42.52
40.47
36.94
33.06
29.71
27.26
25.63
24.44
23.31
21.82
19.67
16.51
12.19
6.84
1.07
-4.03
-7.25
-7.68
-5.15
-0.25
6.06
13.18
21.31
31.56
45.41
63.85
86.62
111.86
136.49
156.98
170.35
174.86
170.45
158.54
141.58
122.41
103.64
87.14
73.76
63.45
55.48
48.88
42.79
36.61
30.02
22.84
14.98
6.51
-2.29
-10.78
-18.08
-23.34
-26.07
-26.44
-25.19
-23.46
-22.17
-21.73
-21.91
-22.05
-21.57
-20.27
-18.45
-16.75
-15.71
-15.43
-15.53
-15.35
-14.37
-12.58
-10.58
-9.31
-9.57
-11.61
-14.94
-18.54
-21.39
-23.03
-23.83
-24.80
-27.10
-31.36
-37.29
-43.76
-49.34
-52.93
-54.25
-53.76
-52.20
-49.88
-46.19
-39.67
-28.58
-11.64
11.34
39.25
69.88
100.33
127.55
148.78
162.10
166.84
163.95
156.11
147.52
142.91
146.28
159.35
180.60
205.42
227.71
242.36
247.61
245.95
242.97
244.41
253.19
267.77
283.08
293.25
294.61
287.34
274.69
260.66
247.53
234.79
219.86
199.99
174.06
143.20
109.96
76.79
44.63
12.43
-22.13
-61.34
-106.09
-155.25
-205.90
-254.63
-298.67
-337.05
-370.72
-402.03
-433.67
-468.06
-507.03
-551.69
-601.88
-655.31
-706.94
-749.25
-774.12
-775.43
-751.63
-706.47
-647.62
-583.86
-522.20
-466.43
-417.46
-374.77
-337.79
-306.41
-280.45
-259.05
-240.45
-222.52
-203.67
-183.50
-162.86
-143.45
-126.96
-114.38
-105.77
-100.47
-97.68
-96.89
-98.19
-101.98
-108.59
-117.82
-128.83
-140.31
-150.91
-159.65
-166.02
-169.99
-171.77
-171.71
-170.10
-167.15
-162.89
-157.04
-149.09
-138.28
-123.88
-105.25
-82.05
-54.19
-21.89
14.39
53.80
95.26
137.45
179.00
218.66
255.47
289.01
319.80
349.49
380.53
415.01
452.89
490.81
522.20
539.07
534.89
506.91
456.99
390.50
314.41
235.67
160.69
95.45
45.55
15.17
5.60
14.17
34.87
60.46
85.25
106.68
125.07
141.86
157.93
173.04
186.50
198.39
210.13
223.84
240.92
260.95
281.44
298.87
310.13
313.62
309.32
298.10
280.91
258.35
231.00
199.93
167.08
134.97
105.99
81.68
62.43
47.80
37.11
30.12
27.21
29.15
36.37
48.32
63.28
78.49
90.94
98.24
99.39
95.02
87.17
78.58
71.77
68.35
68.54
71.06
73.45
72.67
66.00
51.77
30.03
2.67
-27.09
-55.74
-80.61
-100.84
-117.59
-133.46
-151.42
-173.32
-198.88
-225.32
-247.99
-261.96
-264.00
-254.00
-235.21
-212.97
-192.39
-176.32
-164.71
-155.73
-147.92
-142.09
-141.38
-149.52
-168.23
-195.65
-226.92
-256.37
-280.02
-296.69
-307.14
-312.07
-310.69
-300.79
-280.28
-249.13
-210.08
-167.84
-127.01
-90.37
-58.01
-27.99
2.54
35.98
73.35
113.63
153.87
189.77
217.03
233.11
238.21
235.30
228.84
222.86
219.39
217.97
216.43
212.37
204.50
193.07
179.60
165.98
153.63
142.97
133.43
123.79
112.74
99.32
83.32
65.22
45.96
26.75
8.80
-6.68
-18.59
-26.21
-29.54
-29.67
-28.54
-28.09
-29.23
-30.95
-30.58
-24.86
-11.69
8.52
32.68
55.98
73.70
82.92
83.24
76.52
65.64
53.31
41.26
30.26
20.48
11.94
4.76
-0.98
-5.37
-8.89
-12.30
-16.31
-21.22
-26.68
-31.70
-35.04
-35.58
-32.72
-26.47
-17.24
-5.55
8.20
23.74
40.72
58.50
76.04
91.98
104.88
113.52
117.08
115.30
108.62
98.19
85.86
73.83
64.07
57.81
55.06
54.72
55.04
54.27
51.26
45.74
38.18
29.38
19.97
10.23
-0.01
-11.09
-23.19
-35.99
-48.57
-59.50
-67.23
-70.48
-68.68
-62.19
-52.20
-40.48
-28.89
-18.92
-11.38
-6.46
-3.80
-2.97
-3.63
-5.56
-8.55
-12.20
-15.84
-18.66
-20.02
-19.69
-17.95
-15.45
-12.90
-10.77
-9.12
-7.67
-6.03
-3.96
-1.46
1.19
3.68
5.72
7.18
8.03
8.30
8.05
7.42
6.67
6.09
5.95
6.37
7.16
7.91
8.11
7.38
5.59
2.86
-0.53
-4.35
-8.58
-13.40
-19.07
-25.67
-32.88
-39.78
-45.06
-47.36
-45.75
-40.10
-31.06
-19.80
-7.57
4.50
15.49
24.43
30.20
31.65
27.99
19.37
7.06
-6.73
-19.38
-28.57
-32.76
-31.46
-25.11
-14.78
-1.86
12.31
26.54
39.94
51.87
61.81
69.28
73.77
74.76
71.98
65.59
56.29
45.36
34.24
24.11
15.48
8.07
1.17
-5.81
-12.83
-19.14
-23.71
-25.90
-25.82
-24.35
-22.51
-20.94
-19.52
-17.76
-15.36
-12.91
-12.01
-14.92
-23.91
-40.81
-66.65
-101.62
-144.80
-193.89
-244.91
-292.45
-330.48
-353.84
-359.71
-348.42
-323.15
-288.70
-249.87
-210.17
-171.49
-134.43
-99.06
-65.32
-32.88
-0.87
31.94
66.35
101.54
134.63
161.26
177.43
181.48
175.09
162.58
149.04
138.27
131.65
128.42
126.99
126.10
125.35
124.81
124.38
123.46
121.14
116.66
109.81
100.97
90.74
79.68
68.19
56.72
46.08
37.73
33.53
35.29
44.01
59.26
79.06
100.24
119.26
133.06
139.62
138.11
128.81
112.97
92.85
71.75
53.79
43.10
42.64
53.07
72.27
95.71
117.85
133.76
140.59
138.20
128.94
116.68
105.63
99.33
99.96
108.13
122.87
141.87
161.81
179.06
190.65
195.40
194.62
191.85
191.53
197.04
209.00
224.85
239.91
249.51
250.95
244.44
232.49
218.41
204.82
192.94
182.91
174.50
167.70
162.91
160.41
159.99
160.76
161.33
160.44
157.46
152.58
146.75
141.12
136.53
133.17
130.49
127.51
123.21
117.03
109.03
99.82
90.28
81.13
72.61
64.29
55.19
44.04
29.73
11.61
-10.32
-35.46
-62.87
-91.62
-121.13
-151.29
-182.40
-214.83
-248.69
-283.55
-318.41
-352.05
-383.30
-411.51
-436.72
-459.61
-481.32
-503.40
-527.54
-555.07
-586.27
-619.57
-651.24
-676.09
-688.94
-686.39
-668.12
-636.93
-597.61
-555.28
-513.85
-475.39
-440.41
-408.61
-379.57
-353.06
-328.95
-306.95
-286.58
-267.33
-249.02
-231.97
-216.90
-204.67
-195.68
-189.45
-184.46
-178.60
-169.68
-156.27
-138.08
-115.95
-91.50
-66.55
-42.69
-20.92
-1.66
15.22
30.06
43.19
54.74
64.61
72.65
78.76
83.07
85.78
87.20
87.58
87.14
86.13
84.95
84.06
83.82
84.33
85.35
86.53
87.58
88.49
89.48
90.71
92.13
93.39
94.03
93.71
92.34
90.08
87.14
83.58
79.26
74.04
67.86
60.92
53.59
46.35
39.58
33.53
28.28
23.75
19.69
15.62
11.04
5.53
-0.97
-8.11
-15.11
-20.86
-24.26
-24.37
-20.65
-13.16
-2.49
10.24
23.64
36.39
47.53
56.56
63.46
68.52
72.14
74.72
76.62
78.14
79.51
80.87
82.20
83.37
84.24
84.71
84.82
84.73
84.64
84.71
84.93
85.16
85.11
84.38
82.63
79.72
75.80
71.21
66.38
61.58
56.78
51.74
46.18
40.02
33.50
27.08
21.15
15.86
11.06
6.33
1.26
-4.40
-10.66
-17.30
-23.92
-30.05
-35.11
-38.54
-39.80
-38.61
-34.96
-29.23
-22.10
-14.32
-6.45
1.31
9.03
16.91
24.88
32.53
39.12
43.97
46.71
47.55
47.22
46.73
47.07
48.81
52.03
56.28
60.76
64.62
67.29
68.65
69.06
69.10
69.23
69.52
69.65
69.16
67.81
65.73
63.39
61.24
59.35
57.28
54.31
49.85
43.89
37.04
30.28
24.49
19.99
16.47
13.14
9.21
4.23
-1.74
-8.35
-15.09
-21.58
-27.51
-32.52
-36.02
-37.32
-35.69
-30.76
-22.66
-12.02
0.11
12.64
24.65
35.59
45.20
53.45
60.33
65.81
69.94
72.81
74.65
75.70
76.07
75.60
73.89
70.57
65.58
59.41
53.06
47.66
44.06
42.42
42.23
42.64
42.81
42.27
40.96
39.02
36.58
33.69
30.38
26.77
23.21
20.09
17.67
15.88
14.30
12.38
9.71
6.12
1.75
-3.12
-8.26
-13.63
-19.30
-25.50
-32.40
-40.08
-48.34
-56.67
-64.16
-69.79
-72.55
-71.86
-67.64
-60.37
-50.97
-40.49
-29.93
-20.16
-11.87
-5.50
-1.27
0.89
1.32
0.48
-1.17
-3.18
-5.22
-6.94
-8.01
-8.19
-7.44
-5.99
-4.30
-2.92
-2.23
-2.35
-3.11
-4.21
-5.40
-6.60
-7.83
-9.12
-10.41
-11.60
-12.60
-13.41
-14.18
-15.07
-16.24
-17.70
-19.35
-21.04
-22.66
-24.18
-25.67
-27.29
-29.27
-31.80
-34.92
-38.44
-41.91
-44.70
-46.12
-45.56
-42.70
-37.47
-30.15
-21.29
-11.69
-2.29
6.09
12.92
18.14
22.03
25.04
27.45
29.28
30.29
30.27
29.22
27.48
25.61
24.12
23.29
23.08
23.30
23.69
24.16
24.71
25.37
26.12
26.81
27.21
27.10
26.35
24.91
22.82
20.13
16.85
13.06
8.86
4.44
-0.01
-4.32
-8.42
-12.39
-16.36
-20.50
-24.94
-29.78
-35.11
-40.92
-46.97
-52.76
-57.46
-60.13
-59.97
-56.62
-50.25
-41.55
-31.44
-20.84
-10.49
-0.89
7.53
14.44
19.60
22.90
24.49
24.76
24.21
23.36
22.57
22.09
22.05
22.48
23.33
24.39
25.30
25.68
25.37
24.50
23.47
22.74
22.58
22.91
23.41
23.62
23.28
22.30
20.72
18.58
15.90
12.64
8.90
4.94
1.09
-2.43
-5.62
-8.62
-11.54
-14.28
-16.59
-18.23
-19.23
-20.07
-21.51
-24.24
-28.49
-33.83
-39.27
-43.66
-46.08
-46.13
-43.98
-40.13
-35.19
-29.62
-23.63
-17.20
-10.10
-2.01
7.31
17.78
28.75
38.93
46.73
50.79
50.66
47.16
42.05
37.33
34.33
33.22
33.14
32.99
32.01
30.28
28.33
26.74
25.60
24.52
22.89
20.37
17.05
13.41
10.00
7.10
4.62
2.13
-0.87
-4.69
-9.29
-14.32
-19.22
-23.46
-26.77
-29.28
-31.41
-33.66
-36.35
-39.52
-42.88
-46.06
-48.73
-50.76
-52.15
-52.85
-52.72
-51.40
-48.55
-43.92
-37.60
-30.01
-21.81
-13.72
-6.32
-0.04
4.89
8.39
10.62
11.92
12.87
13.99
15.60
17.62
19.67
21.33
22.41
23.08
23.72
24.64
25.77
26.65
26.65
25.26
22.45
18.66
14.61
10.96
8.00
5.52
2.90
-0.71
-6.12
-13.92
-24.17
-36.29
-48.92
-60.10
-67.86
-70.94
-69.46
-65.23
-61.23
-60.60
-65.53
-76.56
-92.59
-111.54
-131.29
-150.48
-168.93
-187.50
-207.49
-229.80
-253.96
-277.65
-297.02
-308.02
-307.89
-296.29
-275.32
-248.58
-220.04
-193.47
-172.61
-161.30
-163.07
-179.63
-209.26
-246.11
-281.40
-306.10
-313.87
-302.82
-275.13
-235.20
-187.27
-134.18
-76.97
-15.68
49.96
120.26
195.72
277.44
366.57
462.95
563.34
660.55
744.26
803.76
831.69
826.81
794.42
744.14
686.06
627.34
570.63
514.88
457.61
397.27
334.62
272.79
216.30
169.78
136.71
118.66
114.89
122.64
138.02
156.80
175.20
190.18
199.61
202.14
197.45
186.30
170.64
153.11
136.33
122.09
110.96
102.32
94.81
86.96
77.62
66.19
52.53
36.69
18.70
-1.46
-23.70
-47.39
-71.17
-92.96
-110.52
-122.22
-127.72
-128.21
-125.98
-123.55
-122.68
-123.90
-126.47
-129.00
-130.04
-128.67
-124.61
-118.23
-110.28
-101.75
-93.77
-87.46
-83.63
-82.42
-83.07
-83.87
-82.72
-77.75
-68.00
-53.66
-36.06
-17.37
-0.20
12.89
19.99
20.38
14.91
5.75
-4.26
-12.74
-18.74
-22.97
-27.32
-33.67
-42.83
-54.09
-65.47
-74.71
-80.34
-82.20
-81.37
-79.38
-77.37
-75.56
-73.30
-69.73
-64.53
-58.39
-52.70
-48.86
-47.52
-48.23
-49.79
-50.90
-50.70
-49.14
-46.71
-44.24
-42.57
-42.35
-44.05
-47.93
-53.96
-61.81
-70.78
-79.89
-87.95
-93.81
-96.50
-95.43
-90.56
-82.59
-72.85
-63.14
-55.40
-51.27
-51.85
-57.43
-67.37
-80.12
-93.52
-105.29
-113.80
-118.43
-119.70
-118.88
-117.23
-115.51
-113.85
-111.98
-109.65
-106.68
-102.90
-97.73
-90.19
-79.30
-64.76
-47.35
-28.81
-11.04
4.65
17.93
29.21
38.90
46.93
52.68
55.48
55.11
51.99
46.91
40.57
33.35
25.38
17.06
9.30
3.50
1.05
2.67
8.09
16.11
25.03
33.21
39.55
43.61
45.51
45.69
44.68
42.88
40.56
37.87
34.94
31.86
28.71
25.54
22.32
19.00
15.60
12.27
9.33
7.14
5.91
5.49
5.42
5.09
4.13
2.62
1.07
0.23
0.62
2.33
4.88
7.54
9.55
10.39
9.82
7.72
3.97
-1.57
-8.87
-17.63
-27.00
-35.82
-42.75
-46.67
-46.94
-43.54
-37.06
-28.43
-18.79
-9.24
-0.74
6.05
10.79
13.47
14.39
13.96
12.62
10.69
8.40
5.93
3.57
1.59
0.25
-0.43
-0.69
-0.90
-1.44
-2.45
-3.80
-5.19
-6.32
-7.12
-7.74
-8.52
-9.81
-11.78
-14.38
-17.29
-20.15
-22.69
-24.83
-26.76
-28.74
-31.06
-33.92
-37.44
-41.77
-47.04
-53.28
-60.19
-66.97
-72.31
-74.78
-73.28
-67.46
-57.87
-45.77
-32.67
-19.86
-8.24
1.83
10.29
17.22
22.67
26.68
29.27
30.57
30.77
30.19
29.20
28.10
27.06
26.10
25.10
23.94
22.58
21.12
19.69
18.38
17.09
15.66
13.92
11.88
9.71
7.62
5.68
3.70
1.32
-1.79
-5.66
-10.07
-14.55
-18.75
-22.54
-26.09
-29.77
-33.94
-38.89
-44.67
-51.14
-57.91
-64.25
-69.17
-71.47
-70.14
-64.67
-55.28
-42.88
-28.80
-14.39
-0.68
11.66
22.38
31.38
38.63
44.13
47.93
50.17
51.11
51.10
50.41
49.24
47.72
45.95
44.07
42.25
40.62
39.30
38.38
37.93
38.02
38.67
39.71
40.76
41.23
40.54
38.38
34.94
30.79
26.73
23.36
20.74
18.49
15.89
12.38
7.76
2.30
-3.42
-8.83
-13.57
-17.63
-21.22
-24.70
-28.51
-33.13
-38.95
-46.16
-54.42
-62.77
-69.68
-73.43
-72.71
-67.03
-56.94
-43.71
-28.98
-14.22
-0.56
11.39
21.26
28.87
34.15
37.13
38.08
37.46
35.85
33.87
32.04
30.65
29.80
29.39
29.27
29.24
29.25
29.31
29.43
29.58
29.64
29.38
28.57
27.05
24.73
21.71
18.17
14.39
10.63
7.10
3.87
0.86
-2.12
-5.27
-8.67
-12.30
-15.98
-19.52
-22.74
-25.66
-28.40
-31.26
-34.64
-38.97
-44.58
-51.51
-59.36
-67.11
-73.30
-76.26
-74.66
-67.91
-56.41
-41.39
-24.62
-7.87
7.44
20.45
30.77
38.36
43.27
45.69
45.85
44.12
40.99
37.07
32.92
29.02
25.69
23.06
21.17
20.00
19.52
19.61
20.11
20.80
21.38
21.64
21.37
20.47
18.93
16.82
14.27
11.43
8.42
5.27
1.93
-1.76
-5.91
-10.55
-15.58
-20.77
-26.01
-31.36
-37.03
-43.34
-50.40
-57.86
-64.80
-69.89
-71.64
-68.96
-61.45
-49.64
-34.73
-18.32
-1.90
13.44
27.00
38.44
47.52
54.08
58.07
59.62
59.13
57.17
54.35
51.09
47.69
44.25
40.89
37.73
34.98
32.85
31.47
30.86
30.87
31.23
31.55
31.46
30.58
28.72
25.84
22.18
18.13
14.00
9.95
5.88
1.52
-3.35
-8.76
-14.44
-20.03
-25.15
-29.63
-33.56
-37.25
-41.09
-45.53
-50.96
-57.54
-65.03
-72.59
-78.82
-82.04
-80.82
-74.52
-63.54
-49.21
-33.35
-17.68
-3.49
8.54
18.18
25.44
30.44
33.36
34.50
34.28
33.19
31.68
29.98
28.17
26.20
24.05
21.83
19.78
18.24
17.50
17.63
18.53
19.94
21.42
22.50
22.68
21.60
19.16
15.66
11.71
8.11
5.45
3.86
2.99
2.11
0.48
-2.28
-6.04
-10.26
-14.26
-17.58
-20.21
-22.60
-25.51
-29.59
-35.13
-41.86
-49.08
-55.90
-61.67
-66.11
-69.25
-71.21
-71.71
-70.05
-65.15
-56.17
-42.78
-25.50
-5.44
15.98
37.37
57.48
75.31
90.24
102.32
112.48
122.44
134.15
148.75
165.83
183.18
197.46
205.48
205.66
198.98
188.95
180.41
177.71
182.81
194.28
207.71
217.44
219.02
210.93
194.98
175.04
154.86
136.25
118.46
99.00
75.05
44.83
8.19
-33.43
-77.44
-120.61
-159.44
-191.05
-213.73
-227.34
-233.23
-233.59
-230.50
-225.44
-219.18
-212.20
-204.96
-197.94
-191.20
-184.05
-175.19
-163.25
-147.69
-129.23
-109.63
-90.95
-74.70
-61.30
-50.32
-41.01
-32.83
-25.76
-20.14
-16.29
-14.20
-13.38
-13.20
-13.17
-13.28
-13.93
-15.79
-19.40
-24.83
-31.58
-38.59
-44.55
-48.22
-48.78
-46.12
-40.86
-34.09
-27.06
-20.87
-16.22
-13.39
-12.34
-12.91
-14.85
-17.90
-21.67
-25.63
-29.29
-32.33
-34.79
-37.05
-39.73
-43.49
-48.86
-56.06
-64.91
-74.69
-84.10
-91.49
-95.17
-93.82
-86.74
-73.94
-56.01
-33.86
-8.66
18.30
45.56
71.55
94.72
113.62
127.04
134.18
134.86
129.73
120.29
108.67
97.12
87.30
79.89
74.65
70.81
67.66
64.98
63.04
62.41
63.57
66.59
71.11
76.28
81.01
84.20
84.93
82.72
77.71
70.67
62.83
55.51
49.77
46.16
44.58
44.48
45.01
45.34
44.73
42.44
37.75
29.88
18.07
2.08
-17.50
-38.94
-59.62
-76.55
-87.19
-90.10
-85.26
-73.96
-58.23
-40.40
-22.55
-6.43
6.66
15.85
20.67
21.13
17.72
11.38
3.36
-4.95
-12.36
-18.14
-22.15
-24.73
-26.50
-28.01
-29.49
-30.84
-31.73
-31.91
-31.35
-30.32
-29.31
-28.70
-28.72
-29.25
-30.11
-31.15
-32.39
-34.03
-36.19
-38.87
-41.83
-44.80
-47.69
-50.76
-54.58
-59.79
-66.78
-75.40
-84.94
-94.12
-101.41
-105.21
-104.29
-97.94
-86.26
-70.14
-51.14
-31.08
-11.66
5.92
21.09
33.78
44.20
52.46
58.45
61.93
62.70
60.93
57.25
52.68
48.21
44.45
41.46
38.90
36.32
33.56
30.87
28.77
27.65
27.59
28.13
28.49
27.78
25.39
21.10
15.21
8.29
1.00
-6.23
-13.33
-20.60
-28.50
-37.43
-47.65
-59.20
-72.08
-86.16
-101.21
-116.56
-131.05
-142.95
-150.39
-151.81
-146.53
-134.88
-118.03
-97.65
-75.49
-53.04
-31.41
-11.46
6.23
21.19
32.99
41.40
46.44
48.68
49.06
48.78
48.83
49.74
51.52
53.87
56.62
59.84
63.62
67.73
71.49
73.79
73.83
71.53
67.74
63.88
61.18
60.05
59.98
59.95
58.98
56.59
52.78
47.87
42.13
35.71
28.79
21.66
14.70
8.19
2.06
-4.16
-11.19
-19.58
-29.21
-39.16
-47.75
-53.10
-53.68
-48.80
-38.83
-25.05
-9.28
6.70
21.50
34.38
45.16
54.04
61.27
66.99
71.15
73.58
74.22
73.19
70.88
67.84
64.64
61.65
59.01
56.66
54.42
52.23
50.23
48.74
48.11
48.51
49.65
50.84
51.06
49.41
45.44
39.33
31.83
23.95
16.60
10.34
5.38
1.68
-0.91
-2.50
-3.22
-3.17
-2.45
-1.04
1.11
3.99
7.31
10.42
12.33
11.94
8.41
1.53
-8.24
-19.79
-31.64
-42.07
-49.45
-52.33
-49.75
-41.45
-28.05
-11.04
7.61
25.92
42.33
56.04
66.89
75.15
81.19
85.14
87.04
86.85
84.75
81.24
77.13
73.28
70.27
68.28
67.03
66.14
65.32
64.60
64.16
64.12
64.32
64.26
63.36
61.31
58.21
54.43
50.39
46.17
41.59
36.35
30.36
23.87
17.28
10.88
4.58
-1.97
-9.12
-16.88
-24.79
-32.12
-38.10
-42.35
-45.02
-46.77
-48.60
-51.60
-56.67
-64.17
-73.67
-83.83
-92.66
-97.93
-97.87
-91.64
-79.55
-62.97
-43.92
-24.60
-6.89
7.82
18.79
25.85
29.35
29.84
28.04
24.67
20.39
15.83
11.57
8.09
5.68
4.47
4.35
5.08
6.41
8.08
9.92
11.75
13.40
14.64
15.22
14.92
13.57
11.11
7.66
3.50
-0.96
-5.32
-9.37
-13.15
-16.93
-21.08
-25.76
-30.85
-35.88
-40.30
-43.80
-46.66
-49.77
-54.44
-61.94
-73.09
-87.96
-105.80
-125.24
-144.38
-161.06
-173.04
-178.31
-175.49
-164.30
-145.73
-121.93
-95.75
-69.97
-46.60
-26.70
-10.36
2.77
13.19
21.19
26.91
30.48
32.18
32.49
32.01
31.38
31.07
31.36
32.35
34.09
36.55
39.76
43.67
48.15
52.88
57.43
61.27
64.02
65.51
65.77
65.02
63.44
61.16
58.27
54.84
51.03
46.99
42.89
38.77
34.53
29.98
24.85
18.90
11.98
4.07
-4.64
-13.71
-22.59
-30.77
-37.98
-44.46
-50.85
-58.01
-66.67
-77.11
-88.79
-100.40
-110.08
-115.82
-116.02
-109.97
-98.01
-81.55
-62.60
-43.39
-25.77
-10.96
0.64
9.23
15.39
19.81
23.05
25.57
27.60
29.40
31.15
33.08
35.32
37.96
40.99
44.40
48.14
52.10
56.04
59.54
62.10
63.41
63.55
63.01
62.57
62.82
63.83
65.14
65.90
65.35
63.10
59.21
54.11
48.24
41.98
35.62
29.33
23.21
17.26
11.29
5.02
-1.81
-9.29
-17.27
-25.53
-33.97
-42.86
-52.65
-63.81
-76.50
-90.33
-104.30
-116.87
-126.21
-130.41
-128.06
-118.51
-102.31
-81.02
-56.96
-32.53
-9.69
10.31
27.01
40.34
50.43
57.35
61.19
62.14
60.62
57.30
52.98
48.49
44.49
41.40
39.29
37.88
36.72
35.28
33.22
30.50
27.43
24.47
22.00
20.15
18.68
17.19
15.19
12.44
8.96
4.98
0.73
-3.62
-8.07
-12.61
-17.14
-21.51
-25.52
-29.13
-32.46
-35.73
-39.12
-42.68
-46.40
-50.36
-54.80
-60.01
-66.00
-72.20
-77.29
-79.50
-77.17
-69.46
-56.60
-39.90
-21.17
-2.11
16.06
32.81
47.98
61.39
72.62
80.92
85.47
85.83
82.15
75.25
66.43
56.99
47.90
39.64
32.32
25.88
20.39
16.05
13.10
11.52
10.93
10.65
9.77
7.60
3.75
-1.68
-8.24
-15.20
-21.84
-27.70
-32.69
-37.09
-41.32
-45.79
-50.53
-55.32
-59.69
-63.17
-65.53
-66.87
-67.59
-68.34
-69.78
-72.46
-76.59
-81.94
-87.68
-92.45
-94.62
-92.64
-85.48
-72.91
-55.53
-34.68
-12.06
10.55
31.61
49.93
64.78
75.79
83.02
86.82
87.73
86.43
83.59
79.88
75.91
72.09
68.68
65.66
62.96
60.51
58.47
57.15
56.93
57.97
60.02
62.32
63.91
63.82
61.34
56.25
48.72
39.20
28.31
16.66
4.83
-6.72
-17.69
-27.94
-37.51
-46.57
-55.34
-63.97
-72.46
-80.65
-88.30
-95.15
-101.22
-106.75
-112.34
-118.69
-126.31
-135.13
-144.21
-151.76
-155.47
-153.18
-143.51
-126.36
-102.86
-75.13
-45.63
-16.73
9.79
32.76
51.62
66.37
77.29
84.95
89.99
93.07
94.76
95.58
95.92
96.06
96.11
96.02
95.76
95.29
94.74
94.24
93.80
93.18
91.99
89.84
86.64
82.63
78.19
73.61
68.81
63.44
57.12
49.78
41.81
33.87
26.53
19.95
13.70
7.05
-0.66
-9.69
-19.70
-29.92
-39.47
-47.77
-54.74
-60.82
-66.81
-73.52
-81.47
-90.67
-100.48
-109.67
-116.62
-119.60
-117.16
-108.57
-94.06
-74.89
-53.08
-30.94
-10.51
6.74
20.11
29.52
35.34
38.18
38.82
38.06
36.70
35.40
34.60
34.40
34.68
35.20
35.79
36.55
37.86
40.38
44.77
51.26
59.34
67.69
74.39
77.60
76.21
70.32
61.21
50.82
40.99
32.79
26.40
21.20
16.41
11.46
6.21
0.83
-4.45
-9.55
-14.64
-19.94
-25.64
-31.67
-37.87
-44.08
-50.38
-57.00
-64.09
-71.42
-78.12
-82.82
-84.03
-80.75
-72.93
-61.52
-48.12
-34.43
-21.72
-10.69
-1.59
5.51
10.48
13.19
13.61
12.05
9.14
5.71
2.54
0.14
-1.32
-1.85
-1.61
-0.59
1.23
3.95
7.57
11.98
16.91
21.98
26.79
30.98
34.25
36.36
37.17
36.62
34.81
31.94
28.18
23.70
18.55
12.72
6.22
-0.77
-7.89
-14.69
-20.70
-25.64
-29.46
-32.46
-35.21
-38.51
-43.19
-49.83
-58.37
-67.80
-76.15
-80.86
-79.50
-70.55
-53.95
-31.12
-4.52
23.03
48.95
71.32
89.00
101.62
109.49
113.42
114.51
113.85
112.22
109.94
106.81
102.31
95.86
87.10
76.02
63.05
49.06
35.18
22.63
12.49
5.33
1.17
-0.47
-0.44
0.43
1.42
2.04
2.04
1.33
-0.11
-2.24
-4.99
-8.29
-12.06
-16.31
-21.09
-26.56
-32.87
-40.15
-48.33
-57.14
-66.14
-74.85
-82.91
-90.18
-96.85
-103.40
-110.54
-119.02
-129.29
-141.19
-153.66
-164.72
-171.82
-172.52
-165.33
-150.19
-128.52
-102.74
-75.58
-49.30
-25.44
-4.82
12.23
25.67
35.60
42.34
46.41
48.52
49.46
49.91
50.48
51.50
53.17
55.48
58.36
61.80
65.79
70.37
75.45
80.67
85.40
88.93
90.77
90.88
89.69
87.85
85.88
83.84
81.39
77.93
73.07
66.82
59.65
52.33
45.60
39.91
35.27
31.29
27.29
22.59
16.73
9.59
1.48
-7.07
-15.54
-23.60
-31.30
-39.09
-47.67
-57.78
-69.85
-83.63
-97.93
-110.67
-119.31
-121.60
-116.30
-103.63
-85.21
-63.45
-40.86
-19.39
-0.22
16.07
29.25
39.12
45.59
48.75
49.10
47.42
44.76
42.03
39.85
38.41
37.68
37.60
38.27
39.93
42.84
47.02
52.08
57.22
61.59
64.57
66.19
67.06
68.10
70.02
72.99
76.56
79.90
82.27
83.27
83.01
81.79
79.86
77.19
73.52
68.57
62.36
55.16
47.38
39.35
31.22
22.94
14.50
5.94
-2.67
-11.36
-20.24
-29.40
-38.54
-46.70
-52.38
-53.85
-49.93
-40.51
-26.74
-10.61
5.72
20.55
32.95
42.48
48.86
51.61
50.12
44.10
33.97
21.09
7.46
-4.95
-14.78
-21.61
-25.82
-28.07
-28.85
-28.26
-26.19
-22.65
-18.08
-13.22
-8.92
-5.74
-3.78
-2.73
-2.21
-2.01
-2.34
-3.63
-6.36
-10.75
-16.60
-23.34
-30.19
-36.44
-41.68
-45.96
-49.77
-53.84
-58.88
-65.19
-72.52
-80.12
-87.03
-92.48
-96.21
-98.56
-100.39
-102.79
-106.70
-112.43
-119.35
-125.84
-129.50
-127.95
-119.53
-103.98
-82.52
-57.33
-30.85
-5.15
18.40
39.02
56.17
69.49
78.74
84.11
86.26
86.22
85.11
83.77
82.53
81.33
79.84
77.75
74.99
71.84
68.82
66.48
65.09
64.59
64.47
64.13
63.03
60.93
57.95
54.33
50.28
45.81
40.77
34.95
28.30
20.98
13.34
5.79
-1.34
-7.97
-14.20
-20.26
-26.33
-32.47
-38.54
-44.34
-49.73
-54.81
-59.92
-65.50
-71.94
-79.54
-88.43
-98.71
-110.32
-122.88
-135.40
-146.15
-152.82
-153.20
-145.83
-130.67
-109.15
-83.76
-57.27
-32.10
-9.82
8.77
23.50
34.57
42.38
47.52
50.75
52.84
54.44
55.86
56.99
57.51
57.09
55.75
53.94
52.37
51.75
52.41
54.17
56.41
58.37
59.50
59.61
58.88
57.65
56.20
54.62
52.83
50.59
47.71
44.10
39.77
34.83
29.34
23.29
16.59
9.18
1.18
-7.04
-14.90
-21.82
-27.41
-31.77
-35.46
-39.43
-44.64
-51.85
-61.36
-72.95
-85.99
-99.45
-111.95
-121.86
-127.46
-127.31
-120.76
-108.20
-91.04
-71.36
-51.24
-32.35
-15.63
-1.48
9.94
18.52
24.11
26.70
26.65
24.66
21.79
19.05
17.21
16.47
16.59
17.02
17.32
17.42
17.75
18.99
21.72
26.03
31.32
36.51
40.51
42.63
42.93
41.96
40.50
39.04
37.51
35.36
31.91
26.67
19.62
11.23
2.16
-6.93
-15.61
-23.73
-31.35
-38.68
-46.00
-53.68
-62.10
-71.48
-81.66
-91.76
-100.23
-105.05
-104.30
-96.76
-82.37
-62.20
-38.22
-12.70
12.28
35.17
54.93
71.00
83.09
91.19
95.46
96.38
94.64
91.08
86.54
81.76
77.26
73.39
70.30
67.96
66.27
65.03
64.06
63.17
62.20
60.98
59.29
56.89
53.50
48.97
43.23
36.52
29.21
21.75
14.44
7.27
-0.04
-7.96
-16.82
-26.66
-37.01
-47.10
-56.14
-63.62
-69.59
-74.66
-79.71
-85.67
-93.15
-102.32
-112.78
-123.59
-133.23
-139.79
-141.31
-136.17
-123.61
-104.00
-78.82
-50.27
-20.63
8.17
34.88
58.86
79.90
98.02
113.32
125.96
136.19
144.30
150.56
155.17
158.22
159.80
160.17
159.83
159.48
159.70
160.71
162.14
163.04
162.27
158.85
152.43
143.40
132.68
121.37
110.27
99.57
88.96
77.76
65.35
51.49
36.44
20.92
5.82
-8.09
-20.45
-31.33
-41.23
-50.75
-60.38
-70.29
-80.28
-89.90
-98.71
-106.43
-113.12
-119.12
-124.95
-131.08
-137.62
-144.21
-149.89
-153.21
-152.48
-146.25
-133.70
-114.95
-91.11
-64.05
-36.02
-9.16
14.82
34.81
50.36
61.57
68.82
72.68
73.76
72.61
69.75
65.67
60.90
55.86
50.84
45.88
40.92
35.87
30.73
25.73
21.15
17.22
13.88
10.82
7.59
3.70
-1.00
-6.43
-12.25
-18.06
-23.55
-28.55
-33.04
-37.03
-40.59
-43.82
-47.00
-50.40
-54.34
-58.95
-64.04
-69.10
-73.47
-76.63
-78.46
-79.34
-80.00
-81.35
-84.16
-88.84
-95.25
-102.55
-109.22
-113.15
-112.18
-104.60
-89.80
-68.55
-42.90
-15.59
10.65
33.73
52.47
66.46
75.85
81.04
82.56
81.02
77.06
71.33
64.44
56.95
49.42
42.34
36.15
31.09
27.16
24.03
21.20
18.07
14.06
8.63
1.24
-8.59
-21.23
-36.71
-54.54
-73.70
-92.98
-111.28
-128.07
-143.47
-158.03
-172.26
-186.20
-199.21
-210.22
-218.20
-222.74
-224.29
-224.01
-223.45
-224.02
-226.66
-231.55
-238.09
-244.84
-249.75
-250.49
-244.96
-231.87
-211.14
-183.94
-152.36
-118.85
-85.62
-54.31
-25.83
-0.38
22.27
42.72
61.64
79.66
97.23
114.54
131.58
148.26
164.61
180.84
197.36
214.58
232.69
251.51
270.48
288.76
305.41
319.64
330.91
338.98
343.94
346.12
345.99
344.01
340.36
334.81
326.62
314.86
298.84
278.63
255.22
230.38
205.92
183.10
162.00
141.61
120.23
96.18
68.65
38.11
6.45
-23.47
-48.49
-65.91
-74.23
-73.43
-64.84
-50.64
-33.26
-14.87
2.82
18.60
31.72
41.72
48.46
52.01
52.55
50.37
45.73
38.98
30.58
21.25
11.90
3.60
-2.79
-6.71
-8.16
-7.66
-6.02
-4.11
-2.56
-1.74
-1.70
-2.42
-3.86
-6.08
-9.20
-13.30
-18.37
-24.33
-31.07
-38.52
-46.58
-55.21
-64.24
-73.44
-82.47
-91.02
-98.87
-106.01
-112.61
-118.98
-125.47
-132.34
-139.78
-147.87
-156.65
-165.93
-175.17
-183.23
-188.45
-189.01
-183.43
-171.14
-152.74
-129.92
-104.87
-79.81
-56.45
-35.86
-18.53
-4.46
6.53
14.75
20.56
24.32
26.36
27.00
26.60
25.61
24.50
23.68
23.36
23.60
24.40
25.79
27.93
30.98
34.88
39.25
43.42
46.69
48.63
49.29
49.08
48.46
47.64
46.53
44.82
42.37
39.30
35.87
32.20
27.95
22.39
14.68
4.52
-7.60
-20.37
-32.14
-41.61
-48.29
-52.70
-56.04
-59.75
-65.00
-72.43
-81.90
-92.50
-102.65
-110.24
-113.05
-109.34
-98.34
-80.65
-58.06
-33.15
-8.57
13.56
32.04
46.49
57.12
64.39
68.73
70.46
69.91
67.47
63.71
59.30
55.00
51.45
49.09
48.07
48.29
49.48
51.32
53.54
55.98
58.48
60.85
62.68
63.39
62.38
59.24
53.91
46.73
38.29
29.28
20.22
11.51
3.35
-4.16
-11.04
-17.48
-23.86
-30.61
-38.04
-46.13
-54.52
-62.66
-70.02
-76.36
-81.88
-87.11
-92.71
-99.07
-106.00
-112.53
-117.02
-117.54
-112.44
-100.91
-83.29
-60.94
-35.83
-9.96
15.09
38.42
59.67
78.78
95.68
110.12
121.71
130.01
134.83
136.42
135.36
132.58
128.97
125.21
121.71
118.66
116.19
114.41
113.41
113.11
113.24
113.42
113.29
112.60
111.29
109.37
106.98
104.35
101.89
100.15
99.76
101.15
104.32
108.83
113.86
118.54
122.14
124.18
124.21
121.67
115.86
106.15
92.33
74.85
54.90
34.06
14.04
-3.77
-18.31
-28.83
-34.87
-36.27
-33.31
-26.89
-18.45
-9.77
-2.54
1.94
2.97
0.41
-5.44
-14.08
-24.74
-36.53
-48.30
-58.85
-67.09
-72.34
-74.52
-74.14
-72.05
-69.14
-66.02
-62.88
-59.63
-56.10
-52.30
-48.55
-45.38
-43.38
-42.86
-43.74
-45.49
-47.46
-49.07
-50.17
-50.99
-52.01
-53.60
-55.85
-58.46
-60.94
-62.88
-64.20
-65.12
-66.13
-67.75
-70.41
-74.38
-79.76
-86.45
-94.09
-102.03
-109.27
-114.71
-117.42
-116.88
-113.19
-106.97
-99.21
-90.90
-82.85
-75.56
-69.31
-64.22
-60.42
-58.09
-57.35
-58.24
-60.55
-63.77
-67.13
-69.75
-70.89
-70.19
-67.70
-63.91
-59.51
-55.07
-51.00
-47.41
-44.27
-41.50
-39.11
-37.11
-35.56
-34.45
-33.72
-33.44
-33.84
-35.33
-38.44
-43.51
-50.57
-59.18
-68.52
-77.60
-85.68
-92.52
-98.49
-104.54
-111.63
-120.39
-130.86
-142.46
-154.19
-164.86
-173.20
-177.83
-177.35
-170.48
-156.45
-135.39
-108.49
-77.80
-45.83
-14.87
13.37
37.83
57.97
73.56
84.51
90.81
92.67
90.60
85.44
78.29
70.40
62.95
56.91
52.92
51.20
51.55
53.39
55.95
58.45
60.33
61.34
61.56
61.21
60.44
59.17
57.05
53.61
48.50
41.70
33.47
24.35
14.86
5.35
-4.02
-13.32
-22.75
-32.61
-43.18
-54.57
-66.46
-77.88
-87.22
-92.42
-91.56
-83.46
-68.08
-46.61
-21.18
5.70
31.69
55.02
74.57
89.86
100.82
107.69
110.92
111.07
108.87
105.09
100.51
95.77
91.34
87.43
84.12
81.38
79.16
77.40
76.07
75.03
74.14
73.24
72.16
70.77
68.92
66.45
63.18
58.97
53.81
47.80
41.20
34.25
27.19
20.09
12.90
5.38
-2.85
-12.13
-22.66
-34.22
-45.91
-56.16
-62.86
-63.87
-57.68
-43.90
-23.48
1.48
28.35
54.64
78.54
99.04
115.72
128.49
137.26
142.06
143.14
141.15
137.08
132.03
126.85
122.02
117.60
113.49
109.69
106.34
103.61
101.44
99.29
96.28
91.51
84.50
75.45
65.20
54.70
44.55
34.69
24.49
13.18
0.38
-13.64
-28.08
-42.00
-54.69
-65.92
-75.86
-84.90
-93.38
-101.70
-110.38
-119.95
-130.70
-142.18
-152.92
-160.56
-162.53
-156.87
-143.09
-122.40
-97.32
-70.81
-45.42
-22.70
-3.12
13.49
27.53
39.25
48.59
55.29
59.15
60.20
58.74
55.39
50.90
46.08
41.63
38.07
35.71
34.60
34.61
35.46
36.76
38.08
39.00
39.11
38.06
35.64
31.84
26.93
21.34
15.57
9.96
4.56
-0.76
-6.22
-11.98
-18.11
-24.56
-31.32
-38.50
-46.20
-54.52
-63.37
-72.44
-81.31
-89.56
-97.07
-104.04
-111.13
-119.17
-128.95
-140.81
-154.21
-167.57
-178.44
-184.05
-182.07
-171.45
-152.62
-127.47
-98.69
-69.05
-40.76
-15.22
6.91
25.50
40.64
52.50
61.28
67.28
70.94
72.83
73.55
73.65
73.51
73.41
73.51
73.93
74.85
76.43
78.81
81.96
85.61
89.28
92.36
94.30
94.79
93.87
91.85
89.13
86.06
82.71
78.85
74.17
68.40
61.47
53.59
45.21
36.83
28.91
21.67
15.13
9.10
3.22
-2.85
-9.37
-16.40
-23.78
-31.11
-37.87
-43.50
-47.74
-50.65
-52.77
-54.99
-58.34
-63.56
-70.73
-79.00
-86.62
-91.23
-90.46
-82.63
-67.27
-45.38
-19.23
8.35
34.58
57.43
75.81
89.46
98.59
103.60
104.91
103.09
99.04
93.91
88.88
84.72
81.46
78.47
74.85
70.06
64.19
58.00
52.43
48.08
44.88
42.18
39.17
35.38
30.84
25.98
21.26
16.89
12.76
8.66
4.43
0.18
-3.83
-7.43
-10.69
-13.94
-17.59
-21.96
-27.12
-32.91
-39.10
-45.45
-51.81
-58.04
-64.04
-69.82
-75.55
-81.73
-89.00
-97.89
-108.49
-120.09
-131.21
-139.84
-143.98
-142.24
-134.22
-120.65
-103.07
-83.41
-63.38
-44.10
-26.02
-9.06
7.01
22.29
36.57
49.51
60.79
70.38
78.57
85.80
92.60
99.42
106.68
114.75
123.99
134.51
145.99
157.54
167.86
175.58
179.71
179.96
176.74
170.89
163.37
154.88
145.70
135.71
124.54
111.81
97.39
81.52
64.81
48.06
32.02
17.18
3.67
-8.64
-20.02
-30.81
-41.32
-51.86
-62.62
-73.68
-84.90
-96.06
-106.95
-117.60
-128.35
-139.56
-151.27
-162.72
-172.25
-177.58
-176.59
-168.14
-152.54
-131.53
-107.72
-83.71
-61.47
-42.02
-25.58
-11.96
-0.91
7.76
14.17
18.53
21.28
22.89
23.85
24.45
24.73
24.58
23.96
23.00
22.11
21.79
22.41
23.93
25.85
27.43
27.92
26.91
24.41
20.92
17.16
13.87
11.70
10.97
11.60
13.21
15.15
16.72
17.49
17.36
16.52
15.41
14.43
13.69
13.08
12.25
10.79
8.43
5.10
1.00
-3.47
-7.99
-12.34
-16.60
-21.11
-26.36
-32.79
-40.71
-49.96
-59.87
-69.18
-76.12
-78.85
-75.91
-66.76
-52.10
-33.69
-13.89
4.97
21.14
33.67
42.38
47.56
49.67
49.20
46.65
42.55
37.54
32.27
27.34
23.08
19.54
16.61
14.15
12.18
10.83
10.29
10.55
11.38
12.29
12.77
12.46
11.28
9.37
6.99
4.37
1.70
-0.94
-3.55
-6.22
-9.13
-12.53
-16.63
-21.54
-27.20
-33.40
-39.84
-46.31
-52.78
-59.36
-66.28
-73.67
-81.37
-88.93
-95.67
-100.96
-104.41
-106.19
-106.96
-107.57
-108.72
-110.54
-112.45
-113.34
-111.85
-106.77
-97.29
-83.18
-64.76
-43.01
-19.33
4.47
26.49
45.00
58.87
67.79
72.43
74.18
74.81
75.90
78.42
82.51
87.58
92.62
96.47
98.16
97.02
92.89
86.15
77.67
68.67
60.40
53.53
48.02
43.05
37.46
30.40
21.66
11.86
2.04
-6.75
-13.80
-18.94
-22.38
-24.67
-26.39
-28.18
-30.47
-33.36
-36.50
-39.16
-40.62
-40.46
-39.02
-37.47
-37.46
-40.55
-47.54
-57.95
-69.94
-80.62
-86.86
-86.19
-77.58
-61.78
-41.13
-18.77
2.21
19.60
32.39
40.69
45.28
47.08
46.83
45.12
42.44
39.46
36.90
35.48
35.56
37.02
39.38
41.94
43.99
45.02
44.75
43.03
39.90
35.44
29.90
23.58
16.83
9.98
3.21
-3.47
-10.23
-17.27
-24.76
-32.63
-40.58
-48.16
-54.88
-60.49
-65.05
-68.97
-72.65
-76.37
-80.13
-83.68
-86.78
-89.36
-91.65
-94.19
-97.64
-102.55
-109.07
-116.67
-124.08
-129.36
-130.39
-125.39
-113.65
-95.82
-73.88
-50.63
-28.99
-11.17
1.75
9.94
14.49
16.86
18.35
19.88
22.02
25.13
29.51
35.30
42.31
49.88
56.95
62.51
66.05
67.93
69.23
71.30
75.07
80.59
86.98
92.92
97.06
98.62
97.50
94.20
89.57
84.43
79.36
74.45
69.44
63.89
57.47
50.14
42.30
34.49
27.16
20.36
13.80
7.09
0.12
-6.76
-12.91
-17.77
-21.29
-24.16
-27.60
-32.97
-41.23
-52.70
-66.94
-82.83
-98.70
-112.53
-122.15
-125.70
-122.16
-111.64
-95.49
-75.95
-55.53
-36.32
-19.64
-6.04
4.51
12.22
17.31
19.94
20.36
18.96
16.34
13.22
10.29
7.95
6.26
4.93
3.50
1.73
-0.32
-2.17
-3.16
-2.73
-0.74
2.48
6.31
10.04
13.16
15.31
16.37
16.30
15.13
13.04
10.28
7.21
4.05
0.74
-3.02
-7.60
-13.19
-19.57
-26.13
-32.11
-36.95
-40.50
-43.18
-45.82
-49.45
-55.00
-62.98
-73.13
-84.32
-94.53
-101.25
-102.09
-95.51
-81.30
-60.69
-35.93
-9.67
15.78
38.75
58.35
74.20
86.11
93.94
97.59
97.22
93.38
87.18
80.11
73.82
69.68
68.50
70.27
74.27
79.34
84.23
87.95
89.93
90.04
88.35
84.97
79.93
73.25
65.18
56.33
47.63
39.99
33.94
29.50
26.15
23.23
20.21
16.87
13.17
9.01
4.15
-1.81
-9.10
-17.68
-27.08
-36.79
-46.50
-56.37
-67.00
-79.20
-93.57
-110.11
-127.92
-145.06
-158.90
-166.55
-165.66
-155.22
-135.94
-110.13
-81.05
-52.01
-25.42
-2.47
16.74
32.76
46.18
57.45
66.73
74.08
79.56
83.22
85.09
85.19
83.69
80.99
77.80
75.00
73.32
73.17
74.50
76.99
80.18
83.58
86.74
89.22
90.49
90.20
88.23
84.86
80.64
76.02
71.15
65.72
59.16
51.05
41.52
31.28
21.31
12.37
4.52
-2.86
-10.88
-20.51
-32.17
-45.46
-59.45
-73.01
-85.25
-95.87
-105.13
-113.76
-122.73
-132.95
-145.05
-159.04
-174.18
-188.79
-200.51
-206.56
-204.45
-192.66
-171.14
-141.50
-106.66
-70.06
-34.78
-2.89
24.77
48.29
68.18
84.79
98.04
107.59
113.17
115.01
113.88
110.96
107.41
104.06
101.34
99.40
98.36
98.49
100.12
103.40
108.05
113.28
117.91
120.75
120.85
117.93
112.28
104.70
96.21
87.72
79.75
72.39
65.32
58.07
50.28
41.87
33.04
24.11
15.32
6.60
-2.31
-11.69
-21.60
-31.75
-41.57
-50.55
-58.44
-65.35
-71.72
-77.98
-84.37
-90.84
-97.24
-103.70
-110.71
-119.04
-129.23
-140.87
-152.20
-160.12
-161.07
-152.10
-132.11
-102.24
-65.64
-26.46
11.40
45.12
73.23
95.23
111.08
120.93
125.03
124.07
119.37
112.70
105.84
100.02
95.64
92.36
89.58
86.91
84.41
82.44
81.35
81.07
81.10
80.76
79.50
77.25
74.32
71.16
67.97
64.47
59.92
53.52
44.77
33.83
21.44
8.69
-3.46
-14.51
-24.49
-33.69
-42.29
-50.09
-56.54
-61.07
-63.53
-64.32
-64.32
-64.49
-65.46
-67.32
-69.71
-72.04
-73.89
-75.23
-76.58
-78.85
-82.99
-89.50
-97.87
-106.36
-112.29
-112.72
-105.56
-90.34
-68.51
-42.91
-16.80
7.23
27.80
44.81
58.82
70.37
79.56
85.90
88.70
87.59
82.84
75.47
66.93
58.61
51.44
45.70
41.21
37.59
34.65
32.46
31.24
31.11
31.88
33.09
34.22
34.89
35.04
34.91
34.84
35.04
35.54
36.12
36.52
36.45
35.76
34.33
32.10
29.11
25.51
21.57
17.64
14.01
10.70
7.45
3.68
-1.22
-7.63
-15.47
-24.19
-32.95
-41.08
-48.30
-54.87
-61.47
-68.93
-77.86
-88.44
-100.32
-112.48
-123.40
-131.20
-134.09
-130.87
-121.31
-106.25
-87.42
-66.92
-46.62
-27.79
-11.10
3.27
15.11
24.11
29.79
31.86
30.43
26.26
20.67
15.29
11.54
10.30
11.75
15.46
20.71
26.89
33.69
41.00
48.70
56.40
63.36
68.80
72.20
73.61
73.60
72.82
71.69
70.04
67.39
63.18
57.29
50.19
42.73
35.82
30.01
25.39
21.60
18.14
14.48
10.30
5.51
0.23
-5.24
-10.60
-15.73
-20.79
-26.27
-32.83
-41.01
-50.80
-61.48
-71.53
-78.96
-81.84
-78.93
-70.14
-56.59
-40.32
-23.64
-8.52
3.76
12.67
18.11
20.20
19.12
15.17
8.99
1.55
-5.93
-12.32
-16.95
-19.71
-20.96
-21.28
-21.13
-20.66
-19.77
-18.20
-15.85
-12.85
-9.58
-6.49
-3.97
-2.13
-0.92
-0.17
0.29
0.53
0.70
1.06
2.11
4.37
8.11
13.01
18.06
21.90
23.28
21.65
17.28
11.16
4.48
-1.85
-7.50
-12.67
-17.81
-23.33
-29.50
-36.44
-44.33
-53.20
-62.79
-72.08
-79.34
-82.35
-79.21
-69.01
-52.35
-31.24
-8.38
13.68
33.22
49.52
62.59
72.61
79.59
83.38
83.90
81.40
76.57
70.35
63.69
57.29
51.56
46.71
42.93
40.46
39.48
40.03
41.80
44.20
46.55
48.27
49.04
48.77
47.52
45.38
42.37
38.55
34.07
29.17
24.11
19.04
13.99
8.85
3.54
-1.95
-7.49
-12.89
-17.96
-22.64
-26.95
-30.96
-34.74
-38.31
-41.56
-44.44
-46.97
-49.35
-52.02
-55.49
-60.23
-66.42
-73.71
-81.12
-87.09
-89.84
-87.81
-80.25
-67.39
-50.34
-30.81
-10.57
8.91
26.63
41.99
54.67
64.48
71.39
75.57
77.39
77.38
76.13
74.16
71.81
69.25
66.60
64.06
61.95
60.69
60.62
61.84
64.04
66.60
68.68
69.53
68.65
65.90
61.46
55.72
49.13
42.04
34.67
27.11
19.34
11.34
3.20
-4.87
-12.57
-19.64
-26.03
-31.98
-37.98
-44.58
-52.16
-60.73
-69.93
-79.18
-87.94
-95.88
-103.00
-109.53
-115.89
-122.49
-129.78
-137.96
-146.90
-155.78
-162.96
-166.25
-163.40
-152.90
-134.64
-110.08
-81.89
-53.19
-26.73
-4.29
13.41
26.53
35.66
41.44
44.49
45.26
44.25
42.09
39.49
37.15
35.59
35.05
35.47
36.57
38.09
39.82
41.64
43.55
45.56
47.67
49.75
51.53
52.64
52.66
51.25
48.28
43.87
38.36
32.23
25.86
19.43
12.85
5.86
-1.77
-10.14
-19.06
-28.12
-36.87
-44.98
-52.39
-59.21
-65.74
-72.27
-79.11
-86.50
-94.50
-102.95
-111.08
-117.49
-120.34
-117.79
-108.70
-93.10
-72.40
-49.03
-25.69
-4.66
12.61
25.73
34.91
40.76
43.87
44.77
43.95
41.97
39.41
36.74
34.23
31.83
29.39
26.86
24.46
22.73
22.27
23.48
26.31
30.24
34.55
38.57
41.99
44.85
47.43
50.00
52.57
54.95
56.75
57.55
57.02
54.98
51.34
46.22
39.85
32.59
24.83
16.81
8.54
-0.21
-9.60
-19.50
-29.26
-37.85
-44.36
-48.44
-50.72
-52.66
-56.17
-62.86
-73.40
-87.08
-101.94
-115.16
-123.82
-125.69
-119.64
-106.00
-86.29
-62.86
-38.28
-14.87
5.62
22.16
34.37
42.37
46.62
47.72
46.30
43.08
38.87
34.59
31.19
29.41
29.60
31.53
34.66
38.30
42.00
45.65
49.55
53.99
59.08
64.53
69.77
74.22
77.56
79.82
81.27
82.21
82.65
82.27
80.65
77.47
72.83
67.30
61.68
56.80
53.16
50.84
49.61
49.08
48.82
48.45
47.46
45.26
41.33
35.41
27.81
19.31
10.95
3.49
-2.95
-8.94
-15.41
-23.10
-32.22
-42.25
-52.09
-60.40
-65.83
-67.28
-63.92
-55.51
-42.44
-25.81
-7.27
11.34
28.39
42.75
53.74
61.16
65.07
65.84
64.13
60.85
56.95
53.24
50.13
47.60
45.34
43.02
40.49
37.85
35.31
33.11
31.23
29.57
27.87
25.77
23.00
19.35
14.76
9.27
2.99
-3.95
-11.54
-19.87
-29.15
-39.56
-51.02
-63.13
-75.14
-86.13
-95.43
-102.79
-108.54
-113.28
-117.66
-121.99
-126.17
-129.87
-132.79
-134.97
-136.86
-139.24
-142.91
-148.52
-156.35
-166.16
-177.08
-187.59
-195.76
-199.58
-197.47
-188.65
-173.33
-152.47
-127.43
-99.64
-70.42
-41.08
-12.94
12.55
34.03
50.51
61.65
67.87
70.21
70.02
68.60
66.92
65.56
64.71
64.47
65.02
66.62
69.59
73.92
79.22
84.60
89.00
91.50
91.60
89.32
85.06
79.43
73.07
66.64
60.73
55.76
51.88
48.76
45.73
42.08
37.48
32.21
27.06
22.92
20.28
18.80
17.40
14.59
9.06
0.16
-11.88
-26.10
-41.21
-55.91
-69.10
-79.92
-87.40
-90.45
-87.71
-77.78
-59.61
-32.90
1.61
42.06
85.72
129.41
170.13
205.59
234.56
256.90
273.16
284.17
290.66
293.07
291.57
286.18
276.81
263.32
245.52
223.38
197.15
167.68
136.33
104.87
75.05
48.09
24.56
4.42
-12.76
-27.43
-39.99
-50.75
-60.14
-68.84
-77.89
-88.39
-101.18
-116.36
-133.06
-149.54
-163.77
-174.22
-180.50
-183.76
-186.63
-192.63
-205.35
-227.40
-259.43
-299.43
-342.60
-382.13
-410.94
-423.72
-418.67
-397.92
-366.73
-331.52
-297.89
-269.46
-247.75
-232.95
-224.86
-223.23
-227.59
-236.81
-249.03
-262.20
-275.03
-287.49
-300.72
-316.14
-334.29
-354.08
-372.90
-387.56
-395.44
-395.47
-388.34
-376.01
-360.87
-344.76
-328.32
-310.64
-289.51
-262.01
-225.60
-179.04
-123.09
-60.34
5.73
71.82
135.89
197.52
257.52
317.21
377.76
439.60
501.84
561.67
613.97
651.96
668.98
661.37
630.89
585.44
536.86
496.80
472.30
463.55
464.75
467.59
465.20
454.64
436.84
414.81
391.35
367.93
344.70
321.35
297.98
275.39
254.77
236.94
221.82
208.21
194.19
177.99
158.94
138.07
117.94
101.61
91.25
87.09
87.28
88.76
88.72
85.75
80.25
73.96
68.84
66.26
66.49
68.70
71.54
73.69
74.31
73.32
71.23
69.00
67.49
67.16
67.69
68.07
66.94
63.29
56.81
48.04
38.04
28.05
19.17
12.40
8.70
8.84
13.12
20.81
30.00
38.04
42.34
41.34
34.90
24.04
10.09
-5.93
-23.46
-42.02
-60.74
-78.19
-92.76
-103.34
-109.63
-112.26
-112.28
-110.78
-108.55
-106.07
-103.64
-101.40
-99.36
-97.16
-94.04
-88.92
-80.62
-68.20
-51.41
-31.08
-9.25
11.07
26.52
34.24
32.67
21.74
2.59
-23.04
-53.25
-86.07
-119.31
-150.61
-177.74
-199.41
-215.72
-228.18
-238.96
-249.81
-261.37
-273.22
-284.49
-294.59
-303.49
-311.55
-319.15
-326.54
-334.02
-342.07
-351.10
-360.77
-369.32
-373.74
-370.57
-357.52
-334.60
-304.26
-270.30
-236.22
-203.80
-172.82
-141.94
-110.03
-77.23
-45.17
-16.38
6.71
22.75
31.92
36.04
38.01
41.21
48.54
61.77
81.04
104.96
131.15
156.93
180.02
198.81
212.49
220.71
223.48
221.06
213.98
203.00
188.92
172.38
153.68
132.89
109.92
84.74
57.51
28.55
-1.61
-32.20
-62.03
-89.50
-112.76
-130.21
-141.01
-145.41
-144.71
-140.63
-134.51
-126.56
-115.82
-100.46
-78.56
-48.81
-11.08
33.29
81.54
129.78
173.68
209.35
234.32
248.12
252.29
249.80
244.02
237.82
233.04
230.49
230.22
231.68
233.94
235.80
236.00
233.59
228.30
220.59
211.57
202.65
195.13
189.71
186.12
183.26
179.68
174.35
167.31
159.68
152.95
147.90
143.84
138.67
129.73
114.92
93.63
66.70
36.05
3.96
-27.25
-55.33
-78.21
-94.37
-103.47
-106.74
-106.86
-106.98
-109.52
-115.26
-123.00
-130.36
-134.80
-134.85
-130.62
-123.84
-117.22
-113.57
-115.08
-122.92
-137.17
-157.06
-181.20
-207.66
-234.04
-257.67
-275.97
-287.06
-290.14
-285.46
-273.92
-256.35
-233.01
-203.84
-169.18
-130.64
-91.46
-55.89
-27.76
-9.12
0.42
3.21
2.09
-0.92
-5.29
-11.48
-19.89
-29.80
-39.05
-44.76
-44.60
-37.91
-26.00
-11.44
3.28
16.94
29.83
42.92
56.68
70.15
81.09
87.03
86.55
79.64
67.03
48.92
24.28
-8.61
-50.30
-98.60
-148.15
-192.04
-224.55
-243.45
-250.59
-250.54
-248.07
-246.17
-245.33
-244.25
-241.23
-235.15
-225.70
-212.96
-196.97
-177.59
-154.68
-128.51
-99.86
-69.86
-39.64
-9.89
19.57
49.78
82.28
118.27
157.59
197.97
235.21
264.32
281.38
285.05
277.10
261.53
242.71
223.72
205.48
187.19
167.57
146.10
123.47
101.28
81.08
63.68
48.95
36.18
24.66
13.98
4.15
-4.74
-12.72
-20.02
-26.65
-32.12
-35.17
-34.10
-27.30
-13.93
5.63
29.85
56.44
82.99
107.38
128.14
144.57
156.64
164.94
170.33
173.70
175.60
176.15
175.01
171.72
166.01
158.09
148.71
139.03
130.27
123.44
118.97
116.63
115.65
114.99
113.72
111.34
107.90
103.91
100.00
96.57
93.55
90.53
86.87
82.05
75.91
68.63
60.61
52.30
43.98
35.73
27.47
19.05
10.43
1.70
-6.87
-15.03
-22.55
-29.44
-35.99
-42.70
-50.19
-58.91
-68.87
-79.44
-89.29
-96.70
-99.95
-97.85
-90.04
-77.11
-60.30
-41.22
-21.50
-2.49
14.72
29.37
40.99
49.39
54.65
57.11
57.25
55.70
53.10
50.10
47.25
44.88
43.04
41.47
39.75
37.56
34.87
32.18
30.34
30.30
32.68
37.34
43.33
49.07
52.97
54.03
52.30
49.08
46.47
46.73
51.28
60.10
71.47
82.54
90.51
93.84
93.09
90.67
89.71
92.65
100.08
110.66
121.68
130.17
133.84
131.66
124.07
113.07
101.84
94.06
92.54
97.90
107.69
116.98
120.05
112.82
94.52
67.96
38.05
9.62
-14.63
-35.04
-54.45
-76.70
-104.97
-140.51
-182.18
-226.87
-270.45
-308.92
-339.30
-360.08
-371.02
-372.79
-366.53
-353.76
-336.37
-316.57
-296.54
-277.79
-260.48
-243.34
-224.17
-200.82
-172.19
-138.81
-102.74
-66.78
-33.72
-5.50
17.14
34.64
48.31
59.91
70.99
82.49
94.50
106.42
117.24
126.01
132.05
135.09
135.20
132.73
128.12
121.77
113.87
104.35
93.10
80.34
66.92
54.39
44.62
39.18
38.75
42.87
50.24
59.15
68.00
75.46
80.49
82.21
80.02
73.73
63.80
51.36
37.96
25.17
14.14
5.51
-0.69
-4.76
-7.19
-8.52
-9.20
-9.60
-9.93
-10.26
-10.56
-10.74
-10.68
-10.32
-9.68
-8.83
-7.98
-7.37
-7.29
-7.96
-9.46
-11.75
-14.66
-17.98
-21.55
-25.30
-29.30
-33.65
-38.45
-43.72
-49.33
-55.08
-60.78
-66.36
-71.85
-77.28
-82.51
-87.03
-89.94
-90.19
-86.86
-79.47
-68.17
-53.66
-37.06
-19.52
-2.10
14.33
29.10
41.70
51.73
58.96
63.36
65.18
64.89
63.07
60.29
56.98
53.46
49.97
46.78
44.15
42.33
41.41
41.32
41.79
42.46
42.98
43.03
42.47
41.32
39.83
38.40
37.41
37.07
37.23
37.41
36.90
35.06
31.54
26.34
19.87
12.80
5.89
-0.20
-5.01
-8.34
-10.25
-10.97
-10.84
-10.21
-9.50
-9.15
-9.67
-11.63
-15.48
-21.39
-29.14
-37.87
-46.19
-52.40
-54.90
-52.61
-45.32
-33.73
-19.20
-3.33
12.49
27.33
40.75
52.68
63.19
72.33
80.10
86.38
90.95
93.50
93.62
90.95
85.44
77.57
68.53
59.91
53.20
49.11
47.24
46.29
44.91
42.71
40.87
41.90
48.71
63.22
85.18
112.02
139.32
161.92
175.26
176.37
164.74
142.63
114.96
88.29
69.12
61.74
66.54
79.76
94.82
104.89
105.41
95.35
76.58
52.16
24.39
-6.23
-40.51
-79.55
-123.86
-173.38
-227.74
-286.34
-347.78
-409.06
-465.67
-512.74
-547.14
-568.99
-581.58
-589.45
-595.78
-600.65
-601.34
-594.44
-578.13
-553.32
-522.90
-489.72
-455.04
-418.36
-379.01
-338.08
-299.13
-266.96
-245.20
-233.81
-228.42
-222.16
-208.94
-186.49
-157.35
-127.30
-102.13
-84.59
-73.29
-63.81
-51.33
-33.14
-9.55
17.01
43.81
69.67
95.64
124.64
160.41
206.43
265.33
338.26
424.09
518.37
613.14
697.79
761.61
797.01
802.10
781.32
743.69
699.50
656.88
619.93
588.73
560.91
533.64
504.94
474.11
441.46
407.82
374.35
342.49
313.72
289.13
269.02
252.39
237.09
220.51
200.58
176.63
149.66
121.82
95.44
72.15
52.35
35.40
20.14
5.39
-9.69
-25.60
-42.55
-60.58
-79.49
-99.02
-119.02
-139.62
-161.43
-185.19
-211.07
-237.97
-263.29
-283.39
-294.71
-295.02
-284.16
-264.04
-237.96
-209.60
-182.25
-158.30
-139.31
-125.97
-118.19
-115.19
-115.62
-117.84
-120.33
-121.98
-122.16
-120.71
-117.81
-113.87
-109.36
-104.78
-100.55
-96.97
-94.21
-92.33
-91.28
-90.89
-90.92
-91.07
-91.07
-90.73
-89.98
-88.93
-87.80
-86.89
-86.48
-86.74
-87.54
-88.50
-89.09
-88.89
-87.86
-86.50
-85.76
-86.70
-90.06
-95.91
-103.59
-111.83
-119.16
-124.37
-126.92
-127.19
-126.36
-126.05
-127.54
-131.16
-135.99
-140.02
-140.85
-136.56
-126.44
-111.15
-92.40
-72.39
-53.12
-36.08
-22.14
-11.77
-5.07
-1.95
-2.08
-4.84
-9.35
-14.56
-19.51
-23.50
-26.25
-27.76
-28.20
-27.68
-26.14
-23.49
-19.77
-15.36
-11.02
-7.67
-6.15
-6.88
-9.77
-14.25
-19.49
-24.64
-28.95
-31.97
-33.66
-34.35
-34.74
-35.67
-37.85
-41.57
-46.52
-51.97
-56.99
-60.86
-63.32
-64.62
-65.38
-66.32
-68.06
-70.80
-74.05
-76.45
-75.91
-70.10
-57.16
-36.54
-9.27
22.24
54.98
86.25
114.27
138.39
158.83
176.43
192.21
207.25
222.41
238.12
254.27
270.29
285.36
298.84
310.43
320.20
328.43
335.41
341.17
345.33
346.97
344.64
336.60
321.16
297.23
264.63
224.30
178.07
128.45
78.10
29.73
-14.29
-52.16
-82.97
-106.90
-125.11
-139.27
-150.98
-161.26
-170.34
-177.88
-183.41
-186.71
-188.04
-188.04
-187.61
-187.68
-189.01
-192.08
-196.98
-203.45
-210.99
-218.87
-226.23
-231.98
-234.72
-232.81
-224.69
-209.35
-186.85
-158.54
-126.96
-95.10
-65.59
-39.93
-18.35
-0.03
16.13
30.83
44.03
55.05
63.05
67.61
69.02
68.29
66.76
65.61
65.51
66.38
67.50
67.88
66.60
63.18
57.73
51.00
44.17
38.54
35.16
34.55
36.65
40.83
46.19
51.80
56.96
61.27
64.64
67.08
68.59
69.01
68.14
65.83
62.14
57.26
51.40
44.59
36.67
27.27
16.12
3.14
-11.32
-26.63
-41.89
-55.98
-67.69
-75.83
-79.44
-78.08
-72.18
-63.05
-52.57
-42.64
-34.45
-28.21
-23.28
-18.73
-13.96
-9.04
-4.61
-1.40
0.23
0.40
-0.54
-2.35
-5.13
-9.22
-14.63
-20.73
-26.12
-29.02
-28.06
-22.92
-14.59
-4.98
3.79
10.19
13.70
14.81
14.58
14.09
14.00
14.40
14.88
14.87
13.91
11.83
8.89
5.67
2.95
1.44
1.57
3.25
5.86
8.32
9.37
7.91
3.45
-3.69
-12.22
-20.14
-25.18
-25.41
-19.77
-8.34
7.70
26.48
45.83
63.79
78.85
90.01
96.80
99.17
97.39
92.10
84.14
74.45
63.94
53.34
43.24
34.00
25.91
19.17
13.86
9.83
6.71
3.89
0.77
-3.10
-7.85
-13.19
-18.61
-23.47
-27.28
-29.83
-31.31
-32.24
-33.19
-34.66
-36.84
-39.52
-42.26
-44.59
-46.21
-47.08
-47.30
-46.96
-46.06
-44.52
-42.43
-40.07
-38.00
-36.77
-36.67
-37.48
-38.38
-38.07
-35.08
-28.28
-17.15
-2.08
15.74
34.53
52.40
67.84
79.89
88.17
92.70
93.59
90.87
84.51
74.57
61.41
45.86
29.22
13.05
-1.08
-11.99
-19.08
-22.48
-23.00
-21.74
-19.89
-18.33
-17.56
-17.64
-18.39
-19.50
-20.76
-22.09
-23.60
-25.40
-27.61
-30.24
-33.23
-36.57
-40.36
-44.82
-50.29
-57.05
-65.15
-74.32
-83.85
-92.60
-99.07
-101.57
-98.58
-89.14
-73.21
-51.80
-26.86
-0.76
24.26
46.48
64.92
79.20
89.19
94.99
96.81
95.09
90.58
84.18
76.75
68.80
60.51
51.78
42.42
32.44
22.09
11.85
2.27
-6.24
-13.42
-19.30
-24.11
-28.24
-32.18
-36.41
-41.17
-46.36
-51.52
-55.97
-59.17
-61.03
-62.00
-62.95
-64.75
-67.95
-72.56
-78.15
-84.02
-89.34
-93.10
-94.07
-90.94
-82.69
-69.20
-51.56
-31.98
-13.16
2.63
14.15
21.30
24.69
25.04
22.93
18.73
13.03
6.87
1.47
-2.24
-4.22
-5.57
-8.07
-13.47
-22.58
-35.02
-49.34
-63.74
-76.80
-87.92
-97.55
-107.00
-118.23
-133.36
-154.12
-181.20
-213.64
-248.65
-281.96
-308.78
-324.98
-328.12
-317.98
-296.55
-267.58
-235.81
-206.12
-182.63
-167.81
-161.94
-162.94
-166.84
-168.87
-164.69
-151.50
-128.59
-97.22
-59.86
-19.26
22.45
64.14
105.74
147.96
192.10
239.67
291.93
348.95
408.63
466.07
514.29
546.14
556.82
545.86
517.38
478.43
436.24
395.83
359.15
325.82
294.82
265.70
238.87
214.83
193.20
172.44
150.38
125.35
97.12
67.07
37.76
11.74
-9.41
-25.59
-38.03
-48.54
-58.69
-69.35
-80.53
-91.70
-102.04
-110.70
-116.74
-119.07
-116.58
-108.47
-94.78
-76.52
-55.67
-34.54
-15.21
1.01
13.72
23.12
29.71
33.96
36.23
36.84
36.07
34.16
31.38
28.02
24.53
21.59
20.03
20.62
23.69
28.88
35.10
40.87
44.77
45.86
43.98
39.61
33.70
27.19
20.85
14.99
9.64
4.61
-0.30
-5.17
-9.96
-14.52
-18.77
-22.75
-26.65
-30.66
-34.98
-39.66
-44.67
-49.95
-55.34
-60.51
-64.74
-66.97
-65.98
-60.81
-51.15
-37.61
-21.61
-4.97
10.55
23.62
33.42
39.66
42.36
41.79
38.43
32.89
25.97
18.50
11.28
4.98
0.02
-3.45
-5.49
-6.42
-6.64
-6.59
-6.55
-6.68
-6.95
-7.25
-7.46
-7.62
-7.96
-8.95
-11.13
-14.93
-20.36
-26.90
-33.55
-39.28
-43.36
-45.74
-47.07
-48.43
-50.91
-55.20
-61.36
-68.79
-76.36
-82.60
-85.90
-84.81
-78.35
-66.35
-49.62
-29.90
-9.52
9.16
24.24
34.64
40.13
41.15
38.56
33.35
26.50
18.87
11.28
4.45
-1.06
-4.94
-7.21
-8.19
-8.43
-8.41
-8.45
-8.55
-8.47
-7.90
-6.64
-4.79
-2.71
-0.97
-0.12
-0.57
-2.49
-5.77
-10.14
-15.21
-20.62
-26.15
-31.78
-37.66
-44.18
-51.79
-60.90
-71.58
-83.34
-94.94
-104.43
-109.54
-108.23
-99.47
-83.66
-62.60
-38.98
-15.64
5.27
22.60
36.19
46.50
54.23
60.03
64.38
67.69
70.31
72.49
74.39
75.98
77.09
77.54
77.26
76.43
75.55
75.26
76.13
78.40
81.77
85.45
88.33
89.32
87.76
83.54
77.08
69.20
60.70
52.19
43.91
35.77
27.51
18.85
9.74
0.34
-8.89
-17.51
-25.17
-31.83
-37.84
-43.88
-50.72
-58.92
-68.39
-78.15
-86.33
-90.60
-88.73
-79.48
-63.04
-41.09
-16.32
8.28
30.24
48.03
61.06
69.39
73.28
72.97
68.69
60.92
50.64
39.23
28.32
19.19
12.50
8.14
5.58
4.19
3.62
3.86
5.13
7.47
10.58
13.80
16.34
17.57
17.28
15.57
12.85
9.52
5.94
2.38
-0.87
-3.52
-5.44
-6.76
-7.97
-9.85
-13.13
-18.20
-24.95
-32.79
-41.00
-49.07
-56.84
-64.52
-72.57
-81.40
-91.21
-101.77
-112.26
-121.25
-126.79
-126.85
-119.85
-105.22
-83.73
-57.23
-28.30
0.51
27.10
50.07
68.66
82.51
91.52
95.80
95.73
92.01
85.63
77.75
69.53
61.92
55.59
50.80
47.40
44.95
42.80
40.42
37.52
34.17
30.78
27.79
25.53
23.96
22.78
21.49
19.72
17.30
14.34
11.15
7.90
4.66
1.23
-2.70
-7.46
-13.16
-19.69
-26.64
-33.48
-39.75
-45.09
-49.48
-53.09
-56.41
-60.07
-64.84
-71.52
-80.63
-92.19
-105.34
-118.28
-128.43
-133.02
-129.80
-117.76
-97.52
-71.14
-41.63
-12.12
14.79
37.41
55.07
67.81
76.20
80.89
82.55
81.79
79.17
75.34
70.94
66.66
63.09
60.62
59.35
59.19
59.88
61.09
62.49
63.71
64.28
63.66
61.30
56.77
49.92
40.96
30.47
19.32
8.45
-1.32
-9.47
-15.81
-20.56
-24.17
-27.27
-30.44
-34.08
-38.28
-42.86
-47.42
-51.56
-55.12
-58.18
-61.23
-64.89
-69.73
-76.03
-83.41
-90.80
-96.42
-98.17
-94.13
-83.25
-65.76
-43.30
-18.51
5.69
26.80
43.30
54.73
61.43
64.21
63.99
61.60
57.74
53.10
48.26
43.76
39.93
36.86
34.45
32.43
30.57
28.79
27.18
25.92
25.11
24.65
24.17
23.19
21.27
18.26
14.33
9.92
5.64
1.90
-1.12
-3.66
-6.22
-9.38
-13.51
-18.65
-24.41
-30.18
-35.39
-39.80
-43.64
-47.57
-52.46
-59.12
-67.93
-78.60
-90.06
-100.52
-107.79
-109.78
-105.08
-93.41
-75.76
-54.08
-30.82
-8.21
12.04
29.00
42.29
51.87
57.82
60.31
59.74
56.74
52.27
47.33
42.80
39.14
36.44
34.49
33.02
31.89
31.11
30.77
30.89
31.32
31.75
31.80
31.10
29.43
26.71
23.07
18.79
14.26
9.83
5.73
1.87
-2.09
-6.62
-12.16
-18.91
-26.66
-34.95
-43.07
-50.36
-56.40
-61.16
-65.10
-69.05
-74.00
-80.73
-89.40
-99.23
-108.48
-114.75
-115.54
-109.04
-94.75
-73.67
-48.08
-20.89
5.20
28.19
47.06
61.56
71.93
78.60
82.05
82.88
81.81
79.65
77.12
74.70
72.57
70.68
68.96
67.35
65.97
64.97
64.48
64.46
64.74
65.00
64.89
64.03
62.16
59.08
54.76
49.42
43.42
37.34
31.70
26.83
22.66
18.81
14.60
9.38
2.76
-5.20
-14.01
-22.95
-31.25
-38.48
-44.55
-49.84
-54.97
-60.69
-67.70
-76.34
-86.33
-96.67
-105.51
-110.57
-109.66
-101.45
-85.89
-64.42
-39.48
-13.91
9.79
29.95
45.75
57.14
64.48
68.45
69.75
69.19
67.47
65.04
62.00
58.14
53.10
46.74
39.32
31.59
24.61
19.38
16.55
16.18
17.81
20.63
23.70
26.25
27.76
28.04
27.12
25.19
22.53
19.27
15.33
10.44
4.23
-3.50
-12.64
-22.67
-32.87
-42.54
-51.23
-58.92
-65.92
-72.65
-79.65
-87.36
-96.07
-105.61
-115.16
-123.06
-127.03
-124.77
-114.79
-97.00
-72.87
-44.99
-16.20
11.15
35.59
56.45
73.45
86.34
94.74
98.43
97.57
92.94
85.87
77.96
70.63
64.85
61.03
59.07
58.62
59.21
60.38
61.79
63.08
63.94
63.96
62.80
60.14
55.88
50.20
43.56
36.69
30.33
25.04
20.99
17.83
14.87
11.39
6.98
1.69
-3.93
-9.23
-13.77
-17.62
-21.44
-26.32
-33.37
-43.37
-56.37
-71.37
-86.43
-98.88
-105.98
-105.72
-97.36
-81.73
-60.93
-37.66
-14.58
6.31
23.81
37.46
47.26
53.46
56.36
56.35
53.91
49.60
44.16
38.36
33.03
28.77
25.97
24.71
24.91
26.35
28.87
32.21
36.11
40.10
43.63
46.18
47.46
47.43
46.31
44.40
41.97
39.12
35.86
32.15
28.00
23.42
18.42
12.97
7.03
0.62
-6.12
-12.87
-19.28
-25.11
-30.31
-35.19
-40.39
-46.73
-54.85
-65.00
-76.64
-88.44
-98.38
-104.19
-103.92
-96.56
-82.32
-62.73
-40.22
-17.52
3.03
19.98
32.99
42.49
49.31
54.13
57.22
58.50
57.84
55.32
51.44
46.94
42.63
39.10
36.69
35.51
35.62
37.09
39.95
43.99
48.71
53.30
56.86
58.63
58.29
55.99
52.32
48.04
43.78
39.82
36.09
32.24
27.90
22.89
17.27
11.19
4.79
-2.01
-9.48
-17.90
-27.34
-37.53
-47.78
-57.26
-65.25
-71.44
-76.03
-79.75
-83.62
-88.71
-95.86
-105.43
-117.03
-129.34
-140.12
-146.58
-145.93
-136.26
-117.09
-89.74
-56.97
-22.25
11.09
40.55
64.74
83.31
96.53
104.97
109.31
110.31
108.80
105.65
101.60
97.03
91.97
86.23
79.68
72.58
65.50
59.24
54.38
51.04
48.85
47.14
45.27
42.94
40.14
37.04
33.74
30.11
25.82
20.54
14.11
6.69
-1.30
-9.24
-16.58
-22.91
-28.14
-32.49
-36.40
-40.43
-45.00
-50.30
-56.12
-62.04
-67.58
-72.39
-76.54
-80.30
-84.23
-88.81
-94.40
-100.93
-107.80
-113.80
-117.13
-115.81
-108.18
-93.51
-72.41
-46.76
-19.27
7.24
30.50
49.07
62.43
70.70
74.35
74.09
70.79
65.52
59.44
53.72
49.30
46.62
45.61
45.72
46.24
46.57
46.49
46.11
45.81
45.83
46.18
46.55
46.47
45.52
43.53
40.56
36.90
32.88
28.80
24.78
20.72
16.13
10.15
1.72
-9.93
-24.85
-41.96
-59.24
-74.25
-85.04
-90.89
-92.45
-91.44
-89.98
-89.84
-92.01
-96.67
-103.17
-110.28
-116.19
-118.80
-116.10
-106.60
-89.99
-67.34
-40.92
-13.64
11.73
33.17
49.68
61.11
67.86
70.54
69.82
66.44
61.28
55.30
49.44
44.43
40.70
38.36
37.25
37.16
37.84
39.03
40.46
41.77
42.58
42.57
41.49
39.28
35.96
31.68
26.63
21.10
15.38
9.80
4.59
-0.13
-4.47
-8.71
-13.25
-18.45
-24.48
-31.23
-38.48
-45.91
-53.32
-60.62
-67.84
-75.03
-82.31
-89.89
-98.04
-107.08
-116.93
-126.81
-135.05
-139.24
-136.93
-126.38
-107.35
-81.16
-50.37
-18.06
12.94
40.54
63.38
80.90
93.05
100.26
103.40
103.66
102.31
100.38
98.36
96.28
93.82
90.77
87.29
83.98
81.70
81.19
82.77
86.16
90.53
94.75
97.76
98.74
97.29
93.46
87.63
80.30
72.00
63.11
53.80
44.07
33.86
23.23
12.51
2.25
-6.94
-14.66
-20.94
-26.31
-31.61
-37.69
-45.16
-54.19
-64.62
-76.15
-88.52
-101.60
-115.26
-129.25
-142.92
-155.19
-164.47
-168.88
-166.72
-156.94
-139.56
-115.87
-88.10
-58.96
-30.94
-5.91
14.99
31.31
42.98
50.25
53.63
53.97
52.41
50.14
48.19
47.13
47.18
48.26
50.18
52.79
55.97
59.53
63.18
66.58
69.44
71.55
72.87
73.36
73.00
71.74
69.48
66.24
62.09
57.20
51.73
45.78
39.43
32.77
25.92
18.98
11.82
4.09
-4.70
-14.97
-26.69
-39.16
-51.20
-61.51
-69.16
-74.04
-76.93
-79.16
-82.28
-87.42
-94.90
-104.00
-112.96
-119.31
-120.40
-114.18
-99.85
-78.32
-51.94
-23.97
2.41
24.94
42.59
55.43
64.06
69.12
70.97
69.85
66.16
60.71
54.65
49.18
45.04
42.31
40.57
39.17
37.67
36.06
34.58
33.47
32.74
32.06
30.92
28.81
25.38
20.56
14.57
7.85
