1544710887.00
64.000000
-0.00
-0.00
-0.00
-0.00
-0.00
-0.00
-0.00
-0.00
-0.00
-0.00
0.00
0.01
0.01
-0.00
-0.03
-0.05
-0.05
0.00
0.13
0.36
0.66
1.01
1.37
1.72
2.06
2.40
2.79
3.24
3.80
4.42
5.06
5.66
6.20
6.68
7.15
7.68
8.31
9.14
10.09
11.04
11.88
12.56
13.14
13.76
14.65
15.96
17.91
20.32
22.90
25.38
27.58
29.57
31.68
34.32
37.81
42.54
48.15
54.10
59.83
64.97
69.58
74.14
79.34
85.71
93.76
103.00
112.62
121.73
129.77
136.75
143.30
150.75
157.77
166.64
177.95
191.79
206.97
220.57
228.25
225.36
208.53
176.87
132.76
80.05
23.07
-34.94
-92.44
-149.16
-205.23
-260.37
-313.74
-363.88
-409.83
-450.90
-486.49
-515.72
-537.19
-549.16
-549.88
-538.26
-514.06
-478.49
-433.64
-382.16
-326.68
-269.44
-212.17
-156.13
-102.36
-51.71
-5.17
36.39
72.32
102.33
126.57
145.55
159.98
170.56
177.91
182.44
184.42
184.10
181.74
177.69
172.36
166.16
159.44
152.44
145.31
138.12
130.91
123.73
116.63
109.70
103.00
96.59
90.49
84.72
79.30
74.24
69.55
65.23
61.29
57.75
54.58
51.79
49.37
47.34
45.68
44.40
43.48
42.88
42.56
42.42
42.34
42.19
41.78
40.96
39.57
37.47
34.62
30.99
26.65
21.68
16.26
10.62
4.97
-0.44
-5.42
-9.78
-13.42
-16.28
-18.38
-19.74
-20.43
-20.57
-20.23
-19.50
-18.46
-17.15
-15.58
-13.78
-11.73
-9.48
-7.05
-4.50
-1.87
0.82
3.53
6.23
8.93
11.68
14.44
17.23
20.09
23.05
26.16
29.48
33.05
36.91
41.14
45.61
50.25
55.02
59.90
64.88
70.00
75.30
80.86
86.79
92.95
99.25
105.64
112.06
118.48
124.86
131.16
137.36
143.48
149.13
154.03
157.90
160.46
161.39
160.31
156.72
149.89
141.34
131.72
121.48
110.96
100.45
90.17
80.34
71.11
62.66
55.14
48.37
42.20
36.56
31.40
26.69
22.42
18.56
15.07
11.96
8.93
5.81
2.50
-1.04
-4.81
-8.80
-13.02
-17.51
-22.32
-27.66
-33.67
-40.41
-47.82
-55.80
-64.20
-72.91
-81.84
-90.86
-99.80
-108.26
-115.51
-120.60
-122.42
-119.95
-112.44
-99.59
-81.59
-59.13
-33.27
-5.35
23.02
49.92
73.14
90.32
99.25
98.31
87.01
66.22
38.16
5.87
-27.53
-59.64
-89.32
-116.72
-142.87
-168.92
-195.45
-222.29
-248.77
-274.23
-298.81
-323.71
-351.09
-383.66
-424.24
-474.97
-536.30
-605.80
-677.41
-741.79
-788.36
-808.37
-797.90
-759.09
-698.99
-626.46
-548.77
-469.72
-390.12
-309.85
-230.05
-153.96
-85.64
-27.88
19.42
59.31
96.28
134.13
174.67
217.70
261.61
303.92
341.07
368.34
380.59
374.18
349.41
311.82
271.41
239.52
224.88
230.65
253.72
286.42
319.58
345.21
358.25
356.57
340.06
309.75
267.39
216.17
161.65
112.32
78.79
70.64
92.37
140.14
201.70
259.96
299.18
310.49
294.33
258.81
214.73
170.41
128.70
87.39
42.48
-7.52
-59.29
-105.19
-136.79
-149.18
-143.23
-124.51
-99.17
-70.19
-36.20
5.49
54.26
103.39
141.83
160.00
155.87
137.31
118.70
113.57
127.73
156.88
189.65
213.62
221.17
211.48
189.09
160.29
130.12
100.87
72.84
45.54
18.66
-7.51
-32.86
-58.24
-86.08
-119.84
-161.99
-211.58
-262.76
-305.62
-329.34
-326.63
-296.88
-246.41
-185.61
-124.47
-69.05
-20.64
22.30
60.87
93.51
116.08
124.13
115.68
92.73
60.81
26.68
-3.94
-27.75
-44.09
-53.74
-57.82
-57.20
-52.69
-45.64
-38.15
-32.76
-31.43
-34.74
-41.57
-49.60
-56.36
-60.14
-60.45
-58.02
-54.19
-50.24
-46.93
-44.27
-41.72
-38.50
-34.06
-28.33
-21.67
-14.77
-8.39
-3.20
0.29
1.69
0.91
-1.82
-5.80
-10.05
-13.58
-15.67
-16.18
-15.50
-14.31
-13.41
-13.40
-14.60
-16.96
-20.07
-23.17
-25.38
-25.90
-24.43
-21.27
-17.32
-13.70
-11.32
-10.45
-10.65
-10.89
-9.98
-7.14
-2.36
3.21
7.65
8.93
5.97
-0.81
-9.42
-17.30
-22.65
-25.29
-26.57
-28.13
-30.54
-32.54
-31.78
-26.28
-16.00
-2.99
9.81
20.34
28.61
36.38
45.69
57.21
69.65
80.62
88.06
91.52
92.10
91.47
90.55
89.00
85.58
79.25
69.97
58.75
47.04
35.89
25.73
16.57
8.50
1.85
-3.16
-6.69
-9.51
-12.63
-16.77
-21.98
-27.82
-33.75
-39.58
-45.46
-51.55
-57.52
-62.60
-65.90
-67.04
-66.37
-64.67
-62.61
-60.35
-57.60
-54.03
-49.73
-45.25
-41.19
-37.82
-34.93
-32.03
-28.77
-25.00
-20.58
-15.12
-8.28
-0.54
6.14
8.49
3.10
-11.53
-33.58
-58.02
-78.04
-87.75
-84.19
-67.73
-41.32
-8.76
26.53
61.74
94.37
121.78
141.40
151.21
150.25
138.88
118.61
91.65
60.72
28.75
-1.43
-27.10
-45.58
-54.27
-51.14
-35.54
-9.53
21.49
49.45
65.90
65.13
46.44
14.80
-20.93
-50.41
-64.90
-59.51
-34.15
6.26
52.69
93.83
118.89
120.85
98.81
58.46
9.98
-35.65
-70.39
-91.02
-98.97
-98.23
-92.85
-85.39
-76.74
-66.80
-55.68
-44.35
-34.53
-27.98
-25.63
-27.19
-31.48
-36.95
-42.35
-46.88
-50.12
-51.75
-51.33
-48.55
-43.35
-36.04
-27.38
-18.36
-10.22
-4.24
-1.64
-3.24
-9.14
-18.49
-29.62
-40.35
-48.72
-53.56
-54.74
-52.99
-49.36
-44.67
-39.34
-33.34
-26.56
-19.15
-11.69
-5.11
-0.41
1.64
0.90
-1.98
-5.42
-7.08
-4.31
5.13
22.15
45.60
71.94
95.83
111.46
114.37
102.97
79.40
48.97
18.59
-5.41
-19.04
-21.68
-15.66
-4.98
6.25
15.21
20.77
23.33
24.04
24.07
24.24
24.95
26.42
28.80
32.23
36.58
41.26
45.17
47.02
45.87
41.66
35.43
28.99
24.25
22.27
22.96
25.08
26.93
27.22
25.67
23.09
20.93
20.69
23.17
28.34
35.40
43.13
50.26
55.54
57.97
56.91
52.40
45.29
37.11
29.55
23.73
19.62
16.03
11.29
4.24
-4.97
-14.82
-23.09
-27.95
-28.91
-27.05
-24.54
-23.68
-25.92
-31.42
-39.19
-47.54
-54.76
-59.43
-60.64
-58.06
-51.87
-42.74
-31.71
-20.09
-9.44
-1.59
1.60
-1.30
-10.67
-25.40
-42.81
-59.39
-71.81
-78.02
-77.77
-72.41
-64.15
-55.20
-47.21
-41.02
-36.83
-34.28
-32.58
-30.86
-28.41
-25.05
-21.16
-17.29
-13.80
-10.52
-6.89
-2.51
2.40
6.84
9.41
9.03
5.62
0.22
-5.38
-9.42
-10.93
-10.09
-7.98
-6.09
-5.58
-6.90
-9.74
-13.13
-15.87
-16.90
-15.64
-12.17
-7.28
-2.11
2.28
5.34
7.31
8.96
11.06
13.87
16.87
19.03
19.51
18.22
16.10
14.77
15.78
19.91
26.77
34.86
42.18
46.99
48.44
46.89
43.69
40.59
39.00
39.39
41.24
43.27
44.17
43.03
39.58
34.12
27.56
21.85
20.19
26.57
44.12
72.88
108.07
140.65
160.30
159.73
138.19
101.75
60.34
23.01
-5.93
-27.56
-46.00
-64.72
-84.37
-103.10
-119.03
-132.51
-146.22
-162.70
-181.31
-196.82
-201.20
-187.96
-156.52
-113.95
-72.56
-44.80
-37.65
-49.64
-71.88
-92.24
-100.43
-91.47
-66.34
-30.36
9.66
47.69
79.60
103.43
119.13
128.20
133.01
135.88
137.64
136.81
129.87
113.34
86.49
52.89
19.62
-5.61
-18.06
-17.92
-9.50
1.58
11.65
20.37
29.86
42.21
57.40
72.93
85.26
91.92
92.84
90.29
87.55
87.18
89.99
94.94
99.74
102.12
100.84
96.26
90.20
85.20
83.45
85.70
90.83
96.29
98.98
96.66
88.78
76.37
61.25
44.85
27.67
9.46
-9.86
-29.34
-46.97
-60.48
-68.58
-71.73
-71.94
-71.83
-73.37
-77.25
-83.12
-90.27
-98.35
-107.36
-117.14
-126.87
-135.00
-139.71
-139.79
-135.11
-126.62
-115.93
-104.67
-94.06
-84.87
-77.45
-71.81
-67.61
-64.04
-60.00
-54.45
-46.80
-37.13
-26.10
-14.58
-3.22
7.67
18.03
27.70
36.15
42.66
46.59
47.85
47.10
45.33
43.24
40.53
35.66
26.39
10.53
-13.49
-46.52
-88.89
-140.36
-199.43
-262.37
-322.82
-372.67
-404.33
-413.45
-400.57
-370.82
-331.78
-290.52
-251.55
-216.43
-184.69
-155.36
-127.88
-101.97
-77.00
-51.52
-23.31
9.51
47.22
87.72
126.63
158.54
179.02
186.30
182.06
170.74
157.75
147.55
142.30
141.76
144.24
147.99
151.90
155.71
159.32
162.18
163.12
160.79
154.47
144.56
132.62
120.70
110.43
102.44
96.25
90.82
85.13
78.78
72.10
65.88
60.93
57.70
56.17
55.79
55.82
55.57
54.71
53.37
52.04
51.17
50.95
51.04
50.74
49.37
46.67
43.02
39.29
36.29
34.29
32.74
30.59
26.99
21.92
16.36
11.81
9.36
9.08
10.06
11.15
11.78
12.24
12.92
13.17
10.81
2.93
-12.33
-34.13
-58.73
-80.98
-96.63
-104.06
-104.53
-100.80
-95.35
-89.17
-81.80
-72.38
-60.73
-47.75
-34.96
-23.67
-14.29
-6.37
0.91
7.95
14.31
18.81
20.24
18.32
14.29
10.59
9.57
12.11
16.73
20.08
18.42
9.56
-5.90
-24.85
-43.06
-57.00
-65.11
-67.99
-67.36
-64.82
-61.00
-55.67
-48.62
-40.68
-33.95
-31.23
-34.53
-44.09
-58.01
-72.99
-85.67
-93.75
-96.12
-92.43
-82.42
-65.88
-43.17
-15.99
12.67
39.36
61.62
78.87
92.39
104.07
115.15
125.31
132.76
135.10
130.51
118.54
100.64
79.73
59.36
42.38
29.83
20.49
11.57
0.24
-14.59
-31.52
-47.35
-58.86
-64.56
-65.24
-63.06
-60.05
-56.98
-53.34
-48.27
-41.61
-34.23
-27.47
-22.31
-18.81
-16.19
-13.33
-9.30
-3.61
3.75
12.33
21.26
29.27
35.03
37.69
37.46
35.69
34.39
35.29
38.94
44.32
49.46
52.40
52.30
49.71
46.16
43.19
41.50
40.77
40.02
38.40
35.71
32.55
29.83
28.20
27.68
27.58
26.91
24.84
21.14
16.22
10.89
5.99
2.03
-0.96
-3.31
-5.44
-7.53
-9.48
-10.97
-11.85
-12.40
-13.37
-15.61
-19.55
-24.86
-30.39
-34.65
-36.41
-35.21
-31.42
-25.86
-19.36
-12.46
-5.38
1.76
8.62
14.73
19.62
23.14
25.54
27.37
29.17
31.21
33.44
35.59
37.37
38.62
39.40
39.88
40.30
40.84
41.62
42.62
43.63
44.30
44.28
43.46
42.09
40.72
39.95
40.15
41.20
42.52
43.30
42.90
41.07
38.17
34.94
32.32
31.06
31.42
32.93
34.48
34.71
32.54
27.87
21.95
17.30
16.65
21.79
32.12
44.18
52.36
50.59
34.27
1.64
-45.67
-103.15
-164.35
-222.37
-271.21
-306.82
-327.72
-334.67
-329.93
-316.10
-295.03
-267.31
-232.63
-190.76
-143.05
-93.59
-49.35
-18.85
-9.64
-25.21
-62.93
-114.06
-166.19
-207.32
-229.95
-232.75
-219.68
-197.10
-170.59
-143.28
-116.06
-88.96
-62.42
-37.54
-15.41
3.95
21.88
40.75
62.75
88.81
118.42
150.10
182.72
216.38
252.35
292.09
335.64
380.46
421.17
450.68
462.33
452.15
420.52
372.57
317.04
263.97
221.98
195.83
185.57
187.09
194.17
200.68
202.34
197.37
186.27
170.96
153.94
137.65
123.67
112.09
101.26
88.11
69.49
43.83
12.74
-18.83
-44.05
-57.07
-55.83
-43.37
-27.12
-16.42
-19.57
-41.25
-81.37
-134.89
-192.86
-244.17
-278.09
-287.20
-269.71
-230.33
-178.84
-126.81
-83.83
-54.80
-39.32
-33.00
-29.56
-22.43
-5.56
25.88
74.46
139.00
213.47
287.50
348.92
387.46
398.08
382.33
347.14
301.85
254.84
211.28
172.65
137.81
104.59
70.92
35.33
-3.01
-44.19
-87.12
-129.13
-166.34
-194.64
-211.32
-216.13
-211.47
-201.23
-189.22
-177.93
-168.12
-159.42
-151.25
-143.30
-135.64
-128.32
-121.15
-113.83
-106.20
-98.51
-91.29
-84.98
-79.72
-75.28
-71.26
-67.34
-63.30
-59.11
-54.72
-50.23
-45.88
-42.07
-39.17
-37.28
-36.07
-34.86
-33.01
-30.29
-27.06
-24.01
-21.72
-20.36
-19.64
-19.12
-18.57
-18.16
-18.28
-19.18
-20.78
-22.67
-24.20
-24.84
-24.26
-22.43
-19.57
-16.04
-12.24
-8.58
-5.32
-2.59
-0.37
1.47
3.05
4.39
5.51
6.48
7.52
9.03
11.47
15.13
20.03
25.74
31.41
35.94
38.19
37.40
33.47
27.12
19.66
12.53
6.87
3.17
1.27
0.59
0.56
0.68
0.66
0.23
-0.86
-2.77
-5.39
-8.08
-9.99
-10.34
-8.96
-6.36
-3.53
-1.43
-0.46
-0.35
-0.43
-0.20
0.33
0.60
-0.11
-2.28
-5.77
-9.86
-13.51
-15.70
-15.72
-13.36
-8.94
-3.20
2.96
8.73
13.84
18.60
23.75
29.96
37.33
45.14
52.09
56.96
59.32
59.93
60.48
62.74
67.71
75.06
83.34
90.62
95.27
96.25
92.92
84.91
72.24
55.81
37.94
22.12
11.57
7.41
7.39
6.52
-0.53
-16.39
-39.21
-63.44
-82.79
-93.70
-97.06
-97.28
-99.35
-105.73
-115.05
-123.15
-125.66
-120.41
-108.25
-92.31
-76.26
-62.86
-53.34
-47.64
-45.02
-44.64
-45.84
-48.12
-50.92
-53.51
-54.94
-54.08
-50.01
-42.42
-31.89
-19.99
-8.79
-0.15
5.00
6.90
6.68
5.77
5.24
5.48
6.33
7.40
8.42
9.42
10.61
12.21
14.22
16.30
17.86
18.28
17.26
14.95
12.06
9.56
8.31
8.80
10.89
14.00
17.27
19.88
21.24
21.07
19.45
16.73
13.50
10.47
8.25
7.10
6.68
6.19
4.73
1.72
-2.84
-8.34
-13.84
-18.42
-21.52
-23.05
-23.44
-23.62
-24.77
-27.95
-33.54
-40.67
-47.08
-49.79
-46.32
-35.79
-19.45
-0.26
18.00
31.56
37.41
33.72
20.42
-0.43
-24.75
-47.08
-62.17
-66.50
-59.61
-43.98
-24.05
-4.56
10.66
19.37
21.03
16.39
7.25
-3.88
-14.33
-21.96
-25.55
-24.98
-20.90
-14.30
-6.18
2.70
11.69
20.15
27.44
32.93
36.27
37.47
36.86
34.91
31.94
28.05
23.16
17.35
11.10
5.33
1.01
-1.30
-1.79
-1.10
0.14
1.95
5.11
10.67
19.16
30.03
41.80
52.80
61.85
68.46
72.34
72.78
68.57
58.78
43.67
25.46
7.75
-5.86
-13.35
-15.14
-13.69
-12.14
-12.93
-16.97
-23.70
-31.73
-39.43
-45.33
-48.23
-47.34
-42.34
-33.68
-22.56
-10.82
-0.44
6.99
10.54
10.05
5.83
-1.57
-11.39
-22.55
-33.29
-41.23
-43.89
-39.46
-27.58
-9.68
11.31
31.73
48.13
58.14
60.71
56.10
45.55
30.88
14.15
-2.50
-17.02
-27.50
-32.40
-30.86
-22.97
-9.88
6.46
23.59
39.06
50.65
56.63
55.95
48.52
35.34
18.34
-0.12
-17.90
-33.44
-45.63
-53.36
-55.11
-49.06
-33.97
-10.38
18.56
47.42
70.12
82.01
81.54
70.53
53.03
33.42
14.87
-1.23
-14.56
-24.89
-31.36
-32.70
-28.13
-18.24
-5.21
7.88
18.24
24.40
26.49
25.73
23.62
21.06
18.08
13.91
7.63
-1.18
-11.92
-23.09
-32.75
-39.35
-42.29
-41.91
-39.10
-34.62
-28.93
-22.41
-15.71
-9.90
-5.79
-3.07
-0.02
5.51
14.55
25.72
35.59
40.58
39.20
33.09
25.87
20.86
18.98
18.43
16.25
10.71
2.61
-5.23
-9.88
-10.15
-7.07
-2.96
0.34
2.35
3.89
6.12
9.66
14.28
19.08
23.17
26.06
27.84
28.84
29.35
29.39
28.77
27.32
25.20
23.04
21.65
21.78
23.64
26.70
29.74
31.29
30.11
25.86
19.60
13.52
10.27
11.64
17.25
23.98
26.61
19.30
-2.49
-40.40
-92.52
-153.77
-217.20
-275.64
-323.16
-356.00
-372.76
-374.07
-361.91
-338.82
-307.42
-270.33
-230.07
-189.12
-149.58
-112.86
-79.21
-48.07
-18.50
10.21
38.29
65.54
91.42
114.84
133.80
145.11
144.79
129.41
98.07
53.97
4.40
-41.08
-73.59
-87.77
-83.00
-62.58
-31.51
5.88
46.89
90.03
133.60
174.78
209.75
234.94
248.60
251.57
246.83
237.88
227.27
215.61
201.92
184.66
163.02
137.61
110.26
83.47
59.62
40.52
27.18
19.70
17.41
19.17
23.76
30.29
38.43
48.30
60.06
73.38
87.17
99.84
109.87
116.37
119.19
118.61
114.78
107.49
96.34
81.43
63.79
45.38
28.46
14.75
4.73
-2.47
-8.43
-14.60
-21.62
-29.10
-36.04
-41.41
-44.64
-45.69
-44.82
-42.17
-37.71
-31.27
-22.94
-13.27
-3.31
5.64
12.34
16.05
16.61
14.44
10.31
5.05
-0.74
-6.75
-12.92
-19.23
-25.48
-31.20
-35.74
-38.56
-39.47
-38.77
-37.09
-35.13
-33.34
-31.80
-30.23
-28.18
-25.35
-21.69
-17.47
-13.08
-8.93
-5.24
-2.01
0.88
3.61
6.28
8.91
11.48
13.86
15.78
16.73
16.03
12.95
7.14
-1.07
-10.52
-19.53
-26.45
-30.25
-30.88
-29.23
-26.60
-24.15
-22.40
-21.16
-19.75
-17.53
-14.24
-10.20
-6.11
-2.65
-0.13
1.67
3.30
5.30
7.77
10.25
11.93
12.09
10.55
7.87
5.20
3.76
4.36
7.04
11.21
15.89
20.13
23.26
25.07
25.66
25.41
24.79
24.27
24.22
24.78
25.88
27.21
28.27
28.48
27.33
24.52
20.00
14.06
7.25
0.21
-6.46
-12.39
-17.49
-21.93
-25.94
-29.77
-33.51
-37.13
-40.51
-43.47
-45.91
-47.77
-49.06
-49.80
-50.01
-49.64
-48.64
-47.14
-45.41
-43.87
-42.96
-42.94
-43.78
-45.20
-46.82
-48.26
-49.22
-49.52
-49.03
-47.65
-45.31
-42.00
-37.88
-33.20
-28.34
-23.68
-19.54
-16.09
-13.34
-11.20
-9.49
-8.06
-6.78
-5.59
-4.43
-3.25
-1.99
-0.62
0.83
2.27
3.60
4.72
5.63
6.32
6.81
7.07
7.07
6.80
6.31
5.70
5.01
4.24
3.30
2.10
0.55
-1.33
-3.45
-5.65
-7.74
-9.54
-10.98
-12.08
-13.06
-14.23
-15.92
-18.38
-21.66
-25.49
-29.39
-32.75
-34.94
-35.49
-34.17
-31.07
-26.50
-21.01
-15.19
-9.60
-4.64
-0.48
2.93
5.76
8.23
10.49
12.57
14.45
16.09
17.54
18.87
20.21
21.61
23.06
24.41
25.53
26.31
26.74
26.90
26.90
26.80
26.58
26.11
25.22
23.74
21.66
19.11
16.37
13.78
11.56
9.78
8.32
6.88
5.18
3.05
0.48
-2.32
-5.09
-7.63
-9.90
-12.02
-14.23
-16.78
-19.83
-23.45
-27.55
-31.89
-36.06
-39.41
-41.23
-40.90
-38.16
-33.23
-26.76
-19.66
-12.74
-6.55
-1.30
3.06
6.65
9.66
12.22
14.46
16.47
18.28
19.88
21.23
22.31
23.19
24.01
24.88
25.85
26.91
27.96
28.91
29.69
30.23
30.43
30.17
29.35
27.92
25.99
23.74
21.40
19.16
17.10
15.18
13.26
11.21
8.99
6.61
4.16
1.74
-0.56
-2.69
-4.66
-6.50
-8.31
-10.16
-12.13
-14.29
-16.66
-19.27
-22.18
-25.47
-29.12
-32.97
-36.62
-39.44
-40.71
-39.88
-36.75
-31.61
-25.13
-18.11
-11.26
-5.01
0.48
5.22
9.26
12.58
15.15
16.97
18.16
18.95
19.65
20.52
21.65
22.97
24.28
25.36
26.08
26.42
26.50
26.46
26.39
26.28
26.03
25.50
24.58
23.28
21.71
20.06
18.51
17.17
16.02
14.91
13.70
12.27
10.60
8.79
6.94
5.08
3.14
0.98
-1.43
-4.06
-6.70
-9.18
-11.37
-13.34
-15.26
-17.33
-19.71
-22.48
-25.62
-29.00
-32.43
-35.58
-37.97
-39.07
-38.43
-35.77
-31.16
-25.01
-17.99
-10.87
-4.36
1.09
5.30
8.41
10.68
12.37
13.65
14.62
15.31
15.81
16.22
16.70
17.31
18.05
18.88
19.73
20.59
21.49
22.43
23.35
24.07
24.38
24.08
23.07
21.42
19.37
17.22
15.26
13.62
12.28
11.10
9.87
8.48
6.94
5.34
3.83
2.50
1.32
0.16
-1.12
-2.67
-4.52
-6.59
-8.76
-10.82
-12.66
-14.21
-15.51
-16.76
-18.21
-20.14
-22.72
-25.95
-29.52
-32.83
-35.17
-35.86
-34.49
-31.12
-26.21
-20.45
-14.57
-9.02
-4.00
0.52
4.59
8.18
11.13
13.28
14.60
15.28
15.64
15.99
16.52
17.20
17.92
18.58
19.19
19.81
20.49
21.12
21.52
21.47
20.88
19.78
18.35
16.79
15.18
13.55
11.89
10.23
8.66
7.28
6.15
5.19
4.31
3.38
2.38
1.31
0.24
-0.85
-2.02
-3.43
-5.17
-7.26
-9.60
-11.98
-14.18
-16.03
-17.52
-18.76
-19.98
-21.46
-23.42
-25.97
-29.03
-32.27
-35.22
-37.26
-37.82
-36.51
-33.24
-28.23
-22.02
-15.27
-8.62
-2.58
2.56
6.72
9.95
12.41
14.23
15.52
16.36
16.77
16.81
16.54
16.11
15.64
15.29
15.16
15.27
15.61
16.10
16.67
17.24
17.72
18.02
18.06
17.74
17.03
15.97
14.66
13.25
11.85
10.46
8.97
7.29
5.36
3.28
1.25
-0.55
-2.00
-3.17
-4.22
-5.34
-6.69
-8.33
-10.23
-12.27
-14.34
-16.32
-18.13
-19.79
-21.42
-23.22
-25.37
-27.95
-30.83
-33.57
-35.56
-36.14
-34.82
-31.51
-26.56
-20.63
-14.53
-8.90
-4.12
-0.20
2.96
5.52
7.52
8.95
9.83
10.32
10.63
11.02
11.66
12.54
13.51
14.38
15.05
15.52
15.88
16.24
16.66
17.11
17.51
17.74
17.67
17.24
16.41
15.23
13.82
12.32
10.89
9.59
8.39
7.21
5.95
4.60
3.23
1.95
0.84
-0.15
-1.16
-2.41
-4.03
-6.05
-8.30
-10.57
-12.68
-14.56
-16.30
-18.09
-20.13
-22.63
-25.71
-29.33
-33.26
-37.00
-39.88
-41.23
-40.55
-37.69
-32.95
-26.93
-20.39
-14.05
-8.42
-3.75
-0.09
2.67
4.72
6.22
7.29
8.01
8.45
8.69
8.92
9.35
10.14
11.36
12.91
14.58
16.14
17.39
18.30
18.88
19.23
19.36
19.24
18.79
17.97
16.85
15.58
14.35
13.26
12.29
11.32
10.18
8.85
7.39
5.99
4.75
3.66
2.59
1.33
-0.24
-2.13
-4.22
-6.35
-8.42
-10.39
-12.35
-14.40
-16.71
-19.37
-22.52
-26.19
-30.29
-34.56
-38.51
-41.52
-42.97
-42.42
-39.73
-35.13
-29.18
-22.61
-16.11
-10.21
-5.16
-0.95
2.55
5.52
7.99
9.94
11.30
12.06
12.35
12.40
12.46
12.76
13.38
14.31
15.44
16.64
17.73
18.56
19.05
19.19
19.01
18.61
18.01
17.24
16.25
15.02
13.55
11.88
10.06
8.15
6.19
4.24
2.35
0.62
-0.89
-2.18
-3.35
-4.53
-5.84
-7.33
-8.99
-10.73
-12.49
-14.26
-16.12
-18.21
-20.70
-23.71
-27.16
-30.82
-34.16
-36.53
-37.24
-35.77
-32.04
-26.39
-19.56
-12.40
-5.66
0.24
5.20
9.27
12.48
14.79
16.15
16.65
16.58
16.38
16.44
16.96
17.88
18.99
20.05
20.98
21.78
22.45
22.93
23.03
22.58
21.44
19.72
17.61
15.34
13.08
10.92
8.83
6.84
4.99
3.34
1.95
0.79
-0.31
-1.56
-3.13
-5.11
-7.44
-9.92
-12.40
-14.76
-16.98
-19.18
-21.49
-24.05
-26.96
-30.29
-33.97
-37.79
-41.32
-43.92
-44.92
-43.79
-40.34
-34.84
-27.92
-20.37
-12.99
-6.29
-0.57
4.13
7.83
10.66
12.73
14.22
15.30
16.18
17.00
17.85
18.70
19.47
20.10
20.58
21.04
21.67
22.61
23.83
25.09
26.05
26.38
25.92
24.77
23.15
21.35
19.57
17.86
16.21
14.56
12.87
11.15
9.41
7.67
5.96
4.28
2.64
1.06
-0.53
-2.21
-4.06
-6.16
-8.50
-10.98
-13.47
-15.86
-18.16
-20.51
-23.18
-26.47
-30.55
-35.40
-40.65
-45.60
-49.38
-51.13
-50.27
-46.63
-40.57
-32.88
-24.50
-16.33
-8.99
-2.77
2.34
6.50
9.93
12.76
15.08
16.95
18.44
19.63
20.61
21.47
22.27
23.08
23.94
24.89
25.91
26.98
28.02
28.91
29.57
29.87
29.74
29.11
28.01
26.58
25.02
23.53
22.19
20.95
19.59
17.93
15.88
13.54
11.11
8.81
6.79
5.06
3.57
2.17
0.70
-1.03
-3.17
-5.75
-8.66
-11.67
-14.53
-17.06
-19.30
-21.44
-23.77
-26.58
-30.07
-34.21
-38.74
-43.08
-46.45
-47.97
-46.98
-43.26
-37.17
-29.48
-21.21
-13.26
-6.23
-0.37
4.37
8.12
11.09
13.44
15.36
16.98
18.46
19.89
21.32
22.71
24.01
25.19
26.21
27.06
27.72
28.17
28.36
28.25
27.78
26.97
25.85
24.51
23.03
21.49
19.92
18.35
16.81
15.32
13.92
12.63
11.41
10.20
8.90
7.47
5.93
4.39
2.99
1.82
0.79
-0.34
-1.89
-4.09
-6.95
-10.20
-13.43
-16.29
-18.62
-20.58
-22.59
-25.07
-28.30
-32.21
-36.37
-40.12
-42.66
-43.37
-41.84
-38.10
-32.50
-25.66
-18.31
-11.17
-4.75
0.65
4.95
8.23
10.70
12.59
14.11
15.44
16.71
17.95
19.17
20.34
21.45
22.45
23.33
24.06
24.55
24.84
25.01
25.18
25.49
25.90
26.23
26.15
25.38
23.82
21.65
19.23
16.96
15.06
13.52
12.12
10.64
8.93
7.05
5.14
3.36
1.79
0.44
-0.85
-2.24
-3.85
-5.75
-7.81
-9.85
-11.68
-13.25
-14.69
-16.32
-18.45
-21.29
-24.78
-28.73
-32.83
-36.75
-40.12
-42.53
-43.43
-42.31
-38.92
-33.40
-26.36
-18.71
-11.34
-4.90
0.37
4.54
7.82
10.47
12.61
14.30
15.58
16.48
17.06
17.42
17.65
17.87
18.19
18.65
19.26
19.97
20.68
21.31
21.77
22.03
22.08
21.92
21.55
20.92
20.04
18.94
17.71
16.49
15.43
14.52
13.71
12.80
11.64
10.15
8.40
6.57
4.85
3.33
1.97
0.60
-0.97
-2.89
-5.17
-7.69
-10.31
-12.86
-15.24
-17.45
-19.56
-21.74
-24.21
-27.20
-30.83
-34.98
-39.25
-42.94
-45.30
-45.69
-43.82
-39.78
-34.01
-27.14
-19.84
-12.73
-6.26
-0.70
3.85
7.44
10.22
12.35
13.99
15.24
16.21
16.95
17.54
18.07
18.61
19.17
19.77
20.44
21.19
22.02
22.90
23.72
24.34
24.62
24.41
23.65
22.38
20.74
18.92
17.19
15.67
14.40
13.25
12.02
10.58
8.91
7.10
5.29
3.56
1.90
0.21
-1.61
-3.55
-5.53
-7.46
-9.31
-11.15
-13.10
-15.23
-17.50
-19.81
-22.07
-24.40
-27.03
-30.22
-34.01
-38.03
-41.50
-43.54
-43.41
-40.83
-36.07
-29.78
-22.76
-15.74
-9.26
-3.60
1.13
4.90
7.79
9.96
11.62
12.96
14.13
15.16
16.04
16.76
17.36
17.91
18.53
19.27
20.11
20.99
21.81
22.50
23.03
23.34
23.36
22.93
21.98
20.46
18.53
16.43
14.39
12.60
11.06
9.67
8.31
6.85
5.28
3.64
2.03
0.55
-0.80
-2.09
-3.45
-5.04
-7.00
-9.30
-11.82
-14.35
-16.70
-18.79
-20.69
-22.55
-24.56
-26.94
-29.78
-33.02
-36.41
-39.45
-41.50
-41.92
-40.27
-36.52
-31.02
-24.44
-17.54
-10.99
-5.25
-0.55
3.09
5.78
7.68
9.04
10.10
11.04
11.98
13.01
14.14
15.39
16.74
18.16
19.57
20.90
22.07
23.04
23.81
24.40
24.79
24.89
24.59
23.79
22.48
20.75
18.73
16.61
14.56
12.70
11.11
9.74
8.43
6.96
5.24
3.31
1.43
-0.13
-1.21
-1.98
-2.87
-4.32
-6.56
-9.42
-12.44
-15.16
-17.35
-19.15
-20.93
-23.09
-25.85
-29.28
-33.30
-37.69
-42.08
-45.87
-48.29
-48.56
-46.20
-41.25
-34.33
-26.45
-18.60
-11.52
-5.50
-0.44
3.87
7.61
10.79
13.36
15.24
16.51
17.34
17.98
18.64
19.42
20.31
21.25
22.13
22.91
23.57
24.09
24.47
24.66
24.63
24.30
23.64
22.67
21.51
20.29
19.12
18.05
17.04
16.00
14.82
13.43
11.79
9.95
7.99
6.07
4.31
2.77
1.41
0.06
-1.49
-3.41
-5.73
-8.39
-11.20
-13.98
-16.69
-19.32
-22.02
-24.94
-28.27
-32.14
-36.57
-41.34
-45.96
-49.70
-51.75
-51.44
-48.46
-43.01
-35.71
-27.51
-19.34
-11.91
-5.56
-0.30
4.07
7.77
10.90
13.47
15.46
16.94
18.08
19.15
20.36
21.77
23.27
24.65
25.73
26.48
26.97
27.35
27.69
27.94
27.96
27.60
26.84
25.72
24.41
23.01
21.55
19.94
18.14
16.18
14.24
12.51
11.12
10.00
8.99
7.85
6.49
4.92
3.22
1.40
-0.63
-3.02
-5.85
-9.03
-12.31
-15.39
-18.07
-20.37
-22.50
-24.82
-27.69
-31.33
-35.76
-40.72
-45.72
-49.97
-52.60
-52.86
-50.34
-45.15
-37.92
-29.61
-21.23
-13.52
-6.83
-1.17
3.63
7.76
11.27
14.11
16.24
17.73
18.75
19.56
20.35
21.22
22.19
23.18
24.16
25.11
26.00
26.77
27.35
27.61
27.46
26.85
25.78
24.30
22.46
20.38
18.20
16.08
14.20
12.58
11.13
9.58
7.67
5.16
2.04
-1.53
-5.26
-8.89
-12.31
-15.61
-19.11
-23.14
-27.95
-33.60
-39.90
-46.53
-53.14
-59.55
-65.75
-71.93
-78.41
-85.51
-93.39
-102.02
-111.04
-119.84
-127.60
-133.59
-137.30
-138.71
-138.22
-136.59
-134.62
-132.84
-131.35
-129.76
-127.34
-123.17
-116.37
-106.21
-92.19
-74.12
-52.16
-26.78
1.17
30.61
60.25
88.74
114.84
137.49
155.92
169.71
178.77
183.29
183.73
180.68
174.89
167.13
158.25
149.04
140.17
132.08
124.90
118.35
111.94
105.08
97.41
88.92
80.01
71.27
63.25
56.17
49.94
44.21
38.62
32.92
27.13
21.35
15.75
10.40
5.28
0.29
-4.63
-9.56
-14.56
-19.71
-25.04
-30.39
-35.37
-39.32
-41.43
-41.04
-37.83
-32.07
-24.49
-16.14
-8.03
-0.86
5.02
9.67
13.30
16.10
18.14
19.36
19.71
19.29
18.44
17.64
17.33
17.76
18.88
20.39
21.94
23.22
24.11
24.59
24.71
24.48
23.86
22.78
21.24
19.27
17.02
14.69
12.46
10.46
8.70
7.03
5.28
3.29
0.98
-1.56
-4.16
-6.67
-8.98
-11.10
-13.14
-15.25
-17.61
-20.38
-23.73
-27.75
-32.33
-37.12
-41.41
-44.30
-44.96
-42.88
-38.08
-31.17
-23.11
-14.89
-7.27
-0.60
5.04
9.78
13.66
16.70
18.84
20.09
20.62
20.72
20.73
20.88
21.30
21.93
22.62
23.21
23.61
23.80
23.83
23.77
23.63
23.36
22.86
22.00
20.70
19.01
17.02
14.87
12.71
10.61
8.62
6.74
4.97
3.27
1.48
-0.60
-3.09
-6.01
-9.14
-12.15
-14.76
-16.89
-18.77
-20.76
-23.25
-26.48
-30.49
-35.12
-39.97
-44.47
-47.84
-49.27
-48.11
-44.11
-37.63
-29.50
-20.80
-12.54
-5.43
0.26
4.58
7.80
10.27
12.28
13.99
15.51
16.83
17.89
18.74
19.43
20.08
20.77
21.53
22.38
23.26
24.13
24.85
25.28
25.23
24.53
23.12
21.06
18.53
15.74
12.84
9.93
7.03
4.12
1.20
-1.75
-4.71
-7.68
-10.64
-13.53
-16.25
-18.74
-21.05
-23.37
-26.05
-29.39
-33.43
-37.77
-41.57
-43.81
-43.65
-40.75
-35.41
-28.47
-20.88
-13.47
-6.70
-0.73
4.41
8.70
12.06
14.46
16.00
16.91
17.54
18.22
19.11
20.19
21.30
22.21
22.76
22.93
22.80
22.54
22.30
22.09
21.81
21.27
20.27
18.75
16.81
14.67
12.52
10.50
8.51
6.40
3.97
1.14
-1.98
-5.14
-8.08
-10.61
-12.69
-14.46
-16.15
-18.05
-20.44
-23.51
-27.26
-31.42
-35.41
-38.47
-39.79
-38.81
-35.46
-30.10
-23.48
-16.42
-9.61
-3.44
1.94
6.53
10.37
13.49
15.89
17.64
18.86
19.72
20.47
21.31
22.36
23.63
24.99
26.20
27.04
27.40
27.30
26.90
26.39
25.89
25.35
24.67
23.69
22.40
20.85
19.19
17.56
16.00
14.47
12.88
11.14
9.22
7.13
4.91
2.56
0.06
-2.68
-5.68
-8.92
-12.27
-15.49
-18.37
-20.77
-22.82
-24.81
-27.21
-30.37
-34.39
-38.93
-43.27
-46.49
-47.73
-46.49
-42.73
-36.86
-29.57
-21.65
-13.79
-6.47
-0.00
5.50
10.01
13.63
16.45
18.60
20.15
21.13
21.58
21.56
21.26
20.90
20.71
20.81
21.19
21.70
22.16
22.48
22.66
22.75
22.79
22.75
22.45
21.77
20.62
19.13
17.46
15.79
14.20
12.61
10.91
9.01
6.96
4.88
2.92
1.15
-0.45
-1.99
-3.66
-5.58
-7.82
-10.33
-12.96
-15.53
-17.89
-19.98
-21.87
-23.77
-25.97
-28.69
-31.99
-35.64
-39.10
-41.60
-42.37
-40.84
-36.93
-31.01
-23.86
-16.39
-9.35
-3.19
1.98
6.24
9.74
12.59
14.86
16.56
17.75
18.51
18.99
19.36
19.80
20.41
21.18
21.99
22.69
23.15
23.34
23.33
23.12
22.66
21.82
20.50
18.67
16.51
14.28
12.29
10.67
9.42
8.39
7.37
6.24
4.95
3.55
2.11
0.69
-0.69
-2.09
-3.51
-4.98
-6.51
-8.10
-9.75
-11.47
-13.24
-15.02
-16.75
-18.41
-20.10
-22.04
-24.54
-27.78
-31.68
-35.75
-39.17
-41.01
-40.60
-37.73
-32.76
-26.46
-19.74
-13.33
-7.65
-2.82
1.24
4.59
7.26
9.21
10.46
11.16
11.54
11.88
12.34
12.94
13.60
14.23
14.78
15.28
15.78
16.28
16.67
16.83
16.64
16.14
15.43
14.67
13.93
13.21
12.41
11.45
10.30
9.01
7.65
6.24
4.79
3.25
1.63
-0.07
-1.80
-3.53
-5.31
-7.21
-9.31
-11.60
-13.98
-16.28
-18.35
-20.19
-21.96
-23.91
-26.22
-29.00
-32.10
-35.19
-37.78
-39.35
-39.40
-37.62
-33.99
-28.83
-22.74
-16.43
-10.55
-5.52
-1.49
1.65
4.13
6.19
7.98
9.55
10.85
11.86
12.61
13.24
13.89
14.69
15.65
16.70
17.74
18.67
19.50
20.25
20.95
21.52
21.79
21.55
20.70
19.29
17.47
15.52
13.66
12.03
10.65
9.39
8.12
6.71
5.12
3.41
1.70
0.12
-1.28
-2.55
-3.83
-5.29
-7.03
-9.09
-11.40
-13.82
-16.22
-18.51
-20.73
-23.05
-25.70
-28.87
-32.55
-36.44
-39.93
-42.31
-42.94
-41.58
-38.34
-33.69
-28.20
-22.38
-16.61
-11.11
-6.04
-1.48
2.42
5.63
8.12
9.98
11.31
12.28
13.10
13.92
14.85
15.93
17.09
18.24
19.29
20.16
20.84
21.32
21.63
21.76
21.73
21.51
21.03
20.22
19.05
17.56
15.91
14.32
12.96
11.86
10.87
9.73
8.23
6.29
4.04
1.71
-0.46
-2.34
-3.97
-5.46
-6.98
-8.64
-10.44
-12.37
-14.35
-16.32
-18.23
-20.04
-21.73
-23.41
-25.23
-27.42
-30.14
-33.31
-36.55
-39.16
-40.37
-39.55
-36.46
-31.41
-25.10
-18.45
-12.22
-6.91
-2.61
0.81
3.64
6.07
8.20
9.99
11.35
12.21
12.60
12.67
12.61
12.68
13.02
13.68
14.56
15.52
16.46
17.28
17.95
18.44
18.68
18.61
18.16
17.41
16.48
15.58
14.88
14.47
14.27
14.07
13.60
12.63
11.08
9.02
6.70
4.45
2.49
0.85
-0.65
-2.28
-4.26
-6.60
-9.14
-11.63
-13.87
-15.76
-17.39
-18.92
-20.49
-22.27
-24.43
-27.13
-30.44
-34.18
-37.92
-40.89
-42.32
-41.57
-38.45
-33.24
-26.61
-19.39
-12.35
-6.07
-0.84
3.31
6.50
8.96
10.86
12.29
13.23
13.72
13.84
13.80
13.82
14.09
14.67
15.45
16.33
17.20
18.09
19.07
20.15
21.23
22.07
22.42
22.11
21.14
19.71
18.08
16.49
15.09
13.89
12.79
11.63
10.30
8.80
7.14
5.38
3.57
1.76
-0.04
-1.84
-3.62
-5.39
-7.19
-9.09
-11.10
-13.21
-15.33
-17.28
-18.99
-20.48
-21.99
-23.87
-26.43
-29.69
-33.37
-36.87
-39.40
-40.29
-39.09
-35.79
-30.77
-24.70
-18.34
-12.33
-7.03
-2.55
1.23
4.43
7.14
9.32
10.91
11.89
12.43
12.75
13.13
13.65
14.31
14.97
15.53
16.01
16.50
17.12
17.88
18.62
19.09
19.04
18.36
17.10
15.48
13.73
12.07
10.60
9.35
8.28
7.31
6.33
5.28
4.13
2.96
1.88
1.00
0.31
-0.34
-1.22
-2.59
-4.59
-7.11
-9.88
-12.56
-14.96
-17.08
-19.19
-21.67
-24.88
-28.95
-33.68
-38.51
-42.62
-45.17
-45.50
-43.38
-39.02
-33.04
-26.22
-19.28
-12.77
-6.98
-1.96
2.33
5.99
9.11
11.73
13.87
15.54
16.75
17.55
18.07
18.50
19.07
19.91
21.01
22.23
23.34
24.19
24.73
25.04
25.20
25.22
25.01
24.41
23.31
21.76
19.95
18.14
16.53
15.18
13.94
12.62
10.98
8.94
6.55
4.03
1.65
-0.34
-1.83
-2.91
-3.79
-4.79
-6.12
-7.86
-9.87
-11.91
-13.76
-15.33
-16.70
-18.08
-19.73
-21.85
-24.58
-27.95
-31.90
-36.13
-40.13
-43.17
-44.47
-43.46
-39.96
-34.32
-27.30
-19.79
-12.53
-6.04
-0.49
4.11
7.83
10.78
13.03
14.72
15.96
16.86
17.51
17.99
18.45
19.02
19.81
20.78
21.83
22.76
23.43
23.84
24.07
24.20
24.23
24.06
23.49
22.41
20.82
18.92
17.04
15.49
14.46
13.97
13.83
13.73
13.31
12.41
11.02
9.37
7.76
6.38
5.23
4.07
2.62
0.64
-1.88
-4.76
-7.72
-10.53
-13.09
-15.43
-17.65
-19.83
-22.09
-24.57
-27.47
-30.92
-34.84
-38.80
-42.04
-43.71
-43.16
-40.20
-35.16
-28.75
-21.80
-15.01
-8.80
-3.40
1.18
4.95
7.97
10.35
12.24
13.79
15.11
16.27
17.27
18.13
18.95
19.84
20.90
22.15
23.47
24.71
25.72
26.39
26.69
26.60
26.09
25.11
23.62
21.75
19.67
17.69
16.02
14.76
13.81
12.99
12.11
10.97
9.52
7.79
5.87
3.93
2.16
0.68
-0.46
-1.34
-2.16
-3.15
-4.48
-6.20
-8.22
-10.39
-12.53
-14.58
-16.59
-18.77
-21.28
-24.25
-27.64
-31.16
-34.26
-36.33
-36.77
-35.20
-31.56
-26.11
-19.45
-12.26
-5.26
0.98
6.15
10.16
13.11
15.20
16.65
17.55
18.00
18.06
17.85
17.56
17.42
17.54
17.87
18.29
18.62
18.78
18.80
18.76
18.69
18.55
18.24
17.63
16.74
15.65
14.58
13.69
13.04
12.60
12.21
11.70
10.95
9.90
8.62
7.20
5.76
4.35
2.98
1.60
0.14
-1.46
-3.26
-5.28
-7.50
-9.87
-12.33
-14.85
-17.49
-20.45
-23.92
-28.00
-32.62
-37.35
-41.56
-44.49
-45.49
-44.19
-40.61
-35.12
-28.37
-21.15
-14.20
-8.04
-2.93
1.18
4.52
7.35
9.82
11.93
13.62
14.86
15.78
16.61
17.61
18.87
20.33
21.80
23.12
24.22
25.14
25.93
26.54
26.87
26.73
26.02
24.75
23.08
21.21
19.27
17.36
15.49
13.67
11.88
10.09
8.25
6.31
4.28
2.28
0.47
-0.99
-2.09
-2.95
-3.84
-4.96
-6.41
-8.08
-9.84
-11.52
-13.13
-14.74
-16.51
-18.57
-21.04
-24.02
-27.55
-31.55
-35.70
-39.44
-42.00
-42.68
-41.05
-37.14
-31.43
-24.69
-17.73
-11.21
-5.53
-0.81
3.02
6.14
8.75
10.96
12.83
14.36
15.50
16.24
16.65
16.87
17.06
17.35
17.82
18.47
19.27
20.15
21.03
21.77
22.22
22.21
21.69
20.67
19.30
17.81
16.38
15.08
13.86
12.58
11.15
9.54
7.85
6.22
4.75
3.43
2.25
1.09
-0.06
-1.25
-2.48
-3.74
-5.08
-6.55
-8.16
-9.94
-11.86
-13.87
-15.96
-18.11
-20.37
-22.84
-25.64
-28.83
-32.28
-35.56
-38.03
-38.97
-37.91
-34.73
-29.86
-23.98
-17.86
-12.09
-6.94
-2.49
1.33
4.58
7.24
9.29
10.75
11.71
12.30
12.75
13.22
13.88
14.77
15.86
17.00
17.98
18.64
18.92
18.85
18.51
17.99
17.34
16.57
15.65
14.58
13.39
12.11
10.80
9.55
8.41
7.47
6.77
6.28
5.85
5.25
4.29
2.85
0.97
-1.23
-3.63
-6.07
-8.46
-10.71
-12.72
-14.47
-16.06
-17.73
-19.76
-22.40
-25.63
-29.19
-32.55
-35.05
-36.12
-35.36
-32.70
-28.37
-22.90
-16.94
-11.15
-5.96
-1.57
2.03
4.96
7.29
9.03
10.21
10.91
11.39
12.01
13.02
14.54
16.39
18.26
19.83
20.87
21.36
21.47
21.38
21.23
21.00
20.58
19.77
18.53
16.89
15.04
13.15
11.33
9.58
7.83
6.03
4.26
2.68
1.45
0.62
0.05
-0.53
-1.41
-2.82
-4.77
-7.16
-9.76
-12.38
-14.86
-17.15
-19.25
-21.29
-23.40
-25.80
-28.65
-31.94
-35.43
-38.57
-40.70
-41.16
-39.62
-36.10
-31.00
-24.93
-18.50
-12.22
-6.41
-1.27
3.15
6.91
10.12
12.86
15.22
17.19
18.75
19.90
20.73
21.40
21.99
22.54
23.02
23.34
23.47
23.42
23.20
22.86
22.39
21.79
21.03
20.12
19.05
17.80
16.32
14.64
12.81
11.00
9.41
8.17
7.24
6.47
5.61
4.51
3.10
1.48
-0.20
-1.85
-3.51
-5.32
-7.41
-9.80
-12.35
-14.84
-17.07
-19.05
-20.97
-23.17
-25.96
-29.43
-33.38
-37.27
-40.38
-41.97
-41.59
-39.12
-34.83
-29.28
-23.09
-16.83
-10.87
-5.40
-0.53
3.71
7.31
10.28
12.67
14.59
16.10
17.28
18.15
18.80
19.28
19.69
20.07
20.38
20.57
20.61
20.47
20.24
19.97
19.67
19.29
18.78
18.14
17.43
16.76
16.23
15.79
15.32
14.65
13.68
12.43
11.03
9.59
8.19
6.83
5.42
3.86
2.10
0.14
-2.00
-4.22
-6.46
-8.66
-10.80
-12.89
-14.96
-17.07
-19.31
-21.76
-24.52
-27.64
-31.00
-34.26
-36.91
-38.36
-38.14
-36.00
-32.11
-26.87
-20.88
-14.71
-8.87
-3.73
0.56
3.94
6.54
8.52
10.10
11.37
12.39
13.19
13.80
14.29
14.78
15.35
16.00
16.65
17.18
17.50
17.60
17.53
17.37
17.14
16.80
16.23
15.38
14.25
12.96
11.69
10.53
9.48
8.38
7.09
5.52
3.69
1.75
-0.16
-1.98
-3.76
-5.60
-7.59
-9.79
-12.16
-14.65
-17.21
-19.83
-22.61
-25.64
-28.93
-32.32
-35.40
-37.58
-38.22
-36.86
-33.43
-28.25
-22.00
-15.46
-9.34
-4.08
0.21
3.67
6.60
9.30
11.96
14.53
16.82
18.56
19.59
19.96
19.96
19.93
20.13
20.58
21.14
21.59
21.81
21.83
21.77
21.69
21.57
21.29
20.67
19.65
18.30
16.80
15.31
13.90
12.50
10.98
9.27
7.43
5.64
4.08
2.81
1.61
0.20
-1.70
-4.13
-6.79
-9.31
-11.34
-12.90
-14.25
-15.86
-18.09
-21.11
-24.83
-28.94
-33.04
-36.56
-38.90
-39.52
-38.10
-34.70
-29.76
-23.96
-17.93
-12.12
-6.71
-1.69
3.02
7.38
11.27
14.50
16.95
18.64
19.78
20.72
21.87
23.48
25.55
27.82
29.90
31.43
32.28
32.57
32.62
32.88
33.81
35.83
39.21
43.86
49.17
54.07
57.19
57.34
53.97
47.35
38.57
29.04
20.02
12.18
5.60
-0.07
-5.19
-9.93
-14.22
-17.95
-21.19
-24.25
-27.52
-31.22
-35.17
-38.82
-41.55
-43.05
-43.62
-44.09
-45.38
-48.10
-52.08
-56.45
-59.97
-61.54
-60.61
-57.28
-52.20
-46.19
-40.02
-34.20
-28.99
-24.43
-20.47
-17.01
-13.94
-11.24
-8.92
-7.07
-5.67
-4.61
-3.64
-2.48
-0.96
0.90
2.99
5.15
7.33
9.58
11.98
14.54
17.08
19.33
21.03
22.05
22.45
22.38
22.03
21.47
20.71
19.72
18.57
17.32
16.05
14.71
13.15
11.17
8.62
5.55
2.17
-1.21
-4.35
-7.13
-9.65
-12.07
-14.59
-17.33
-20.33
-23.53
-26.77
-29.79
-32.25
-33.68
-33.64
-31.83
-28.30
-23.44
-17.86
-12.21
-6.93
-2.14
2.19
6.12
9.53
12.10
13.55
13.82
13.23
12.39
11.92
12.19
13.14
14.44
15.73
16.82
17.71
18.51
19.31
20.10
20.90
21.82
23.01
24.58
26.36
27.81
28.18
26.79
23.38
18.27
12.22
6.22
1.12
-2.58
-4.87
-6.18
-7.25
-8.92
-11.95
-16.77
-23.43
-31.45
-39.74
-46.72
-50.55
-49.74
-43.73
-33.28
-20.43
-7.88
1.91
7.55
9.08
7.78
5.40
3.48
2.78
3.25
4.27
5.18
5.54
5.28
4.67
4.16
4.17
4.93
6.43
8.42
10.60
12.70
14.53
15.98
16.96
17.36
17.09
16.09
14.49
12.61
10.87
9.64
8.97
8.57
7.96
6.71
4.66
2.02
-0.88
-3.73
-6.48
-9.31
-12.46
-16.01
-19.69
-22.96
-25.12
-25.58
-24.06
-20.70
-15.90
-10.24
-4.29
1.47
6.73
11.29
15.11
18.16
20.50
22.20
23.35
24.05
24.42
24.59
24.65
24.61
24.45
24.11
23.56
22.82
21.98
21.10
20.20
19.21
18.04
16.65
15.09
13.48
11.95
10.53
9.15
7.66
5.97
4.07
2.06
0.13
-1.59
-3.05
-4.29
-5.46
-6.76
-8.37
-10.50
-13.28
-16.72
-20.68
-24.77
-28.42
-30.94
-31.67
-30.20
-26.53
-21.15
-14.92
-8.78
-3.38
0.97
4.35
7.02
9.21
11.00
12.36
13.28
13.88
14.33
14.84
15.47
16.17
16.84
17.35
17.67
17.89
18.07
18.24
18.41
18.50
18.36
17.85
16.85
15.32
13.42
11.39
9.49
7.85
6.42
4.99
3.33
1.29
-1.06
-3.53
-5.91
-8.04
-9.92
-11.67
-13.47
-15.44
-17.62
-20.02
-22.63
-25.45
-28.38
-31.14
-33.25
-34.10
-33.13
-30.06
-25.08
-18.81
-12.08
-5.70
-0.16
4.42
8.20
11.42
14.22
16.59
18.41
19.62
20.32
20.70
21.02
21.42
21.90
22.33
22.58
22.58
22.34
21.90
21.26
20.37
19.23
17.83
16.20
14.40
12.43
10.28
7.97
5.59
3.27
1.12
-0.82
-2.64
-4.56
-6.79
-9.42
-12.43
-15.69
-19.06
-22.38
-25.50
-28.16
-30.04
-30.77
-30.09
-27.90
-24.35
-19.80
-14.72
-9.59
-4.79
-0.53
3.04
5.89
7.99
9.35
10.03
10.15
9.93
9.64
9.50
9.62
9.96
10.38
10.74
10.92
10.95
10.88
10.77
10.62
10.28
9.61
8.45
6.74
4.57
2.16
-0.24
-2.36
-4.08
-5.38
-6.41
-7.36
-8.50
-10.05
-12.19
-14.95
-18.18
-21.50
-24.40
-26.22
-26.48
-24.92
-21.63
-17.03
-11.70
-6.25
-1.18
3.23
6.90
9.90
12.32
14.22
15.58
16.31
16.40
15.95
15.17
14.39
13.85
13.65
13.72
13.89
13.97
13.84
13.46
12.83
11.97
10.89
9.58
8.01
6.15
4.01
1.63
-0.91
-3.46
-5.83
-7.88
-9.48
-10.66
-11.58
-12.45
-13.52
-14.97
-16.94
-19.45
-22.46
-25.74
-28.90
-31.37
-32.51
-31.79
-28.99
-24.32
-18.36
-11.96
-5.88
-0.61
3.70
7.19
10.11
12.59
14.64
16.15
17.08
17.55
17.85
18.26
18.97
19.90
20.81
21.45
21.66
21.43
20.88
20.16
19.32
18.37
17.29
16.07
14.76
13.36
11.87
10.24
8.48
6.64
4.83
3.15
1.65
0.27
-1.13
-2.68
-4.44
-6.39
-8.44
-10.48
-12.42
-14.24
-15.97
-17.72
-19.65
-21.95
-24.79
-28.23
-32.12
-36.08
-39.49
-41.61
-41.82
-39.74
-35.37
-29.14
-21.73
-13.93
-6.45
0.24
5.90
10.54
14.29
17.26
19.54
21.20
22.30
22.95
23.32
23.60
23.95
24.44
24.99
25.48
25.74
25.69
25.36
24.85
24.24
23.52
22.63
21.41
19.81
17.89
15.81
13.78
11.92
10.23
8.62
7.03
5.43
3.90
2.50
1.23
0.02
-1.22
-2.54
-3.97
-5.48
-7.08
-8.79
-10.67
-12.74
-15.00
-17.46
-20.13
-23.06
-26.24
-29.59
-32.81
-35.42
-36.87
-36.65
-34.44
-30.24
-24.41
-17.62
-10.67
-4.29
1.01
5.10
8.13
10.38
12.02
13.11
13.58
13.43
12.84
12.19
11.88
12.16
12.93
13.85
14.52
14.65
14.22
13.46
12.69
12.11
11.78
11.54
11.18
10.52
9.54
8.35
7.12
5.97
4.94
3.93
2.80
1.40
-0.31
-2.28
-4.42
-6.57
-8.60
-10.46
-12.15
-13.77
-15.54
-17.69
-20.45
-23.79
-27.46
-30.89
-33.37
-34.26
-33.20
-30.25
-25.78
-20.41
-14.74
-9.25
-4.22
0.22
4.00
7.07
9.38
10.90
11.68
11.83
11.63
11.32
11.15
11.22
11.51
11.92
12.37
12.84
13.39
14.03
14.65
15.05
14.99
14.35
13.16
11.62
9.96
8.33
6.76
5.18
3.53
1.72
-0.28
-2.52
-4.99
-7.59
-10.15
-12.47
-14.46
-16.22
-18.03
-20.29
-23.24
-26.86
-30.74
-34.22
-36.52
-37.04
-35.47
-31.86
-26.66
-20.54
-14.30
-8.68
-4.19
-1.03
0.95
2.01
2.49
2.59
2.40
1.96
1.34
0.74
0.38
0.51
1.19
2.37
3.84
5.44
7.03
8.64
10.30
12.01
13.65
15.00
15.85
16.07
15.70
14.95
14.05
13.12
12.16
10.99
9.44
7.40
4.95
2.26
-0.45
-3.08
-5.65
-8.21
-10.83
-13.52
-16.25
-19.08
-22.16
-25.70
-29.78
-34.24
-38.51
-41.80
-43.26
-42.30
-38.82
-33.14
-25.97
-18.12
-10.35
-3.23
2.87
7.79
11.53
14.19
15.97
17.09
17.74
18.10
18.29
18.42
18.58
18.88
19.39
20.16
21.12
22.11
22.94
23.37
23.28
22.65
21.55
20.16
18.64
17.15
15.78
14.57
13.57
12.77
12.20
11.82
11.51
11.11
10.43
9.35
7.86
6.04
4.03
1.95
-0.16
-2.36
-4.73
-7.32
-10.15
-13.13
-16.24
-19.53
-23.17
-27.34
-32.08
-37.14
-41.89
-45.41
-46.84
-45.60
-41.66
-35.56
-28.16
-20.39
-12.95
-6.26
-0.51
4.25
7.99
10.74
12.56
13.67
14.31
14.74
15.18
15.74
16.47
17.33
18.27
19.22
20.14
20.99
21.80
22.56
23.16
23.44
23.22
22.35
20.84
18.87
16.71
14.61
12.76
11.16
9.67
8.05
6.08
3.63
0.77
-2.28
-5.23
-7.84
-10.04
-11.96
-13.83
-15.93
-18.49
-21.61
-25.22
-29.09
-32.72
-35.41
-36.39
-35.10
-31.40
-25.71
-18.82
-11.70
-5.07
0.63
5.36
9.18
12.17
14.33
15.66
16.24
16.32
16.22
16.22
16.44
16.87
17.40
17.95
18.56
19.34
20.36
21.60
22.80
23.63
23.76
23.02
21.47
19.31
16.84
14.27
11.73
9.22
6.70
4.16
1.63
-0.83
-3.20
-5.51
-7.83
-10.21
-12.68
-15.17
-17.64
-20.12
-22.82
-26.01
-29.90
-34.39
-38.97
-42.74
-44.71
-44.07
-40.52
-34.38
-26.47
-17.82
-9.38
-1.82
4.53
9.68
13.76
16.90
19.19
20.71
21.55
21.87
21.92
21.98
22.30
23.01
24.13
25.49
26.91
28.16
29.13
29.81
30.21
30.32
30.06
29.34
28.13
26.49
24.63
22.82
21.20
19.76
18.31
16.63
14.54
12.10
9.48
6.91
4.60
2.60
0.84
-0.79
-2.48
-4.33
-6.43
-8.81
-11.41
-14.13
-16.84
-19.45
-21.96
-24.54
-27.45
-31.01
-35.35
-40.30
-45.27
-49.35
-51.51
-50.94
-47.37
-41.07
-32.89
-23.89
-15.10
-7.23
-0.61
4.72
8.95
12.27
14.88
16.90
18.47
19.74
20.82
21.84
22.85
23.83
24.77
25.66
26.53
27.43
28.35
29.24
29.90
30.14
29.86
29.03
27.77
26.24
24.60
22.95
21.38
19.91
18.59
17.40
16.26
15.07
13.69
12.07
10.21
8.26
6.37
4.68
3.26
2.04
0.85
-0.57
-2.44
-4.88
-7.82
-11.05
-14.29
-17.32
-20.02
-22.45
-24.80
-27.30
-30.17
-33.56
-37.43
-41.46
-45.04
-47.33
-47.45
-44.81
-39.34
-31.58
-22.52
-13.36
-5.11
1.63
6.79
10.63
13.59
16.01
18.04
19.66
20.80
21.45
21.68
21.73
21.80
22.04
22.48
23.06
23.72
24.40
25.08
25.71
26.22
26.44
26.20
25.38
24.01
22.20
20.23
18.35
16.73
15.41
14.28
13.16
11.90
10.41
8.69
6.84
4.96
3.16
1.44
-0.23
-1.95
-3.81
-5.84
-7.97
-10.07
-12.04
-13.81
-15.44
-17.04
-18.81
-20.94
-23.62
-26.96
-30.91
-35.16
-39.12
-41.94
-42.74
-40.94
-36.45
-29.72
-21.63
-13.19
-5.28
1.55
7.07
11.26
14.23
16.10
17.03
17.23
16.96
16.56
16.32
16.48
17.14
18.26
19.70
21.27
22.76
24.05
25.01
25.60
25.79
25.56
24.89
23.76
22.19
20.25
18.07
15.81
13.62
11.55
9.60
7.68
5.74
3.76
1.76
-0.25
-2.27
-4.39
-6.70
-9.21
-11.90
-14.62
-17.22
-19.57
-21.66
-23.57
-25.51
-27.75
-30.60
-34.18
-38.37
-42.59
-45.98
-47.55
-46.55
-42.70
-36.37
-28.37
-19.76
-11.45
-4.06
2.16
7.19
11.11
14.02
16.04
17.32
18.07
18.49
18.76
19.02
19.35
19.78
20.29
20.85
21.41
21.94
22.37
22.69
22.89
22.93
22.71
22.17
21.28
20.10
18.77
17.48
16.33
15.32
14.32
13.14
11.65
9.80
7.70
5.47
3.24
1.07
-1.07
-3.24
-5.50
-7.89
-10.40
-13.01
-15.68
-18.34
-20.95
-23.48
-25.97
-28.55
-31.45
-34.84
-38.75
-42.92
-46.73
-49.39
-50.07
-48.24
-43.81
-37.20
-29.22
-20.78
-12.68
-5.47
0.64
5.60
9.46
12.29
14.18
15.30
15.87
16.19
16.54
17.10
17.95
19.09
20.50
22.08
23.76
25.34
26.65
27.51
27.83
27.64
27.01
25.99
24.57
22.75
20.54
18.11
15.70
13.52
11.66
10.01
8.39
6.60
4.65
2.67
0.91
-0.49
-1.54
-2.49
-3.63
-5.21
-7.28
-9.72
-12.31
-14.83
-17.14
-19.22
-21.16
-23.19
-25.60
-28.70
-32.62
-37.14
-41.70
-45.38
-47.20
-46.45
-42.91
-36.94
-29.33
-21.07
-13.07
-5.96
-0.07
4.55
8.05
10.70
12.75
14.38
15.69
16.68
17.40
17.93
18.39
18.90
19.53
20.23
20.90
21.44
21.84
22.15
22.41
22.62
22.68
22.43
21.73
20.53
18.95
17.18
15.44
13.85
12.40
10.94
9.32
7.44
5.34
3.19
1.20
-0.53
-2.07
-3.61
-5.38
-7.52
-10.01
-12.70
-15.39
-17.93
-20.31
-22.64
-25.11
-27.89
-31.03
-34.40
-37.71
-40.44
-42.00
-41.82
-39.53
-35.05
-28.70
-21.07
-12.92
-4.97
2.20
8.23
12.93
16.29
18.45
19.61
20.06
20.09
19.96
19.84
19.84
20.02
20.42
21.05
21.88
22.84
23.76
24.45
24.71
24.45
23.64
22.36
20.75
18.90
16.88
14.71
12.44
10.09
7.73
5.44
3.27
1.26
-0.60
-2.35
-4.03
-5.70
-7.45
-9.41
-11.64
-14.14
-16.80
-19.44
-21.92
-24.20
-26.44
-28.94
-32.00
-35.78
-40.10
-44.46
-48.10
-50.16
-49.96
-47.15
-41.80
-34.41
-25.75
-16.76
-8.28
-0.94
4.91
9.25
12.30
14.42
15.91
16.99
17.76
18.24
18.53
18.74
19.06
19.57
20.27
21.04
21.73
22.28
22.71
23.10
23.47
23.74
23.73
23.24
22.19
20.65
18.89
17.16
15.62
14.30
13.05
11.69
10.12
8.36
6.56
4.93
3.56
2.36
1.12
-0.50
-2.69
-5.52
-8.79
-12.22
-15.51
-18.48
-21.12
-23.58
-26.11
-28.97
-32.37
-36.34
-40.65
-44.77
-47.90
-49.16
-47.90
-43.86
-37.32
-29.05
-20.07
-11.38
-3.68
2.67
7.68
11.57
14.61
16.99
18.82
20.16
21.04
21.60
21.99
22.42
22.99
23.71
24.47
25.14
25.66
26.05
26.38
26.64
26.78
26.61
25.95
24.70
22.98
21.04
19.20
17.65
16.43
15.35
14.17
12.68
10.81
8.67
6.46
4.39
2.55
0.86
-0.84
-2.76
-4.97
-7.44
-10.00
-12.50
-14.86
-17.10
-19.29
-21.51
-23.81
-26.30
-29.12
-32.42
-36.23
-40.30
-44.03
-46.57
-47.09
-45.10
-40.59
-34.08
-26.40
-18.46
-11.03
-4.59
0.64
4.72
7.82
10.19
12.01
13.37
14.31
14.91
15.36
15.89
16.73
17.94
19.42
20.96
22.35
23.51
24.46
25.23
25.79
26.04
25.81
25.06
23.89
22.51
21.15
19.90
18.72
17.40
15.82
13.90
11.71
9.36
6.97
4.57
2.14
-0.40
-3.08
-5.89
-8.73
-11.52
-14.17
-16.66
-19.00
-21.27
-23.60
-26.15
-29.12
-32.58
-36.41
-40.17
-43.15
-44.57
-43.80
-40.56
-35.09
-28.00
-20.08
-12.05
-4.45
2.40
8.33
13.24
17.05
19.74
21.37
22.15
22.37
22.36
22.36
22.52
22.86
23.31
23.80
24.25
24.62
24.86
24.91
24.70
24.14
23.20
21.92
20.43
18.85
17.34
15.93
14.62
13.36
12.12
10.82
9.46
8.03
6.51
4.91
3.25
1.55
-0.20
-2.04
-4.09
-6.45
-9.16
-12.12
-15.11
-17.90
-20.35
-22.52
-24.61
-26.92
-29.72
-33.16
-37.23
-41.70
-46.09
-49.65
-51.53
-50.92
-47.39
-41.04
-32.61
-23.18
-13.92
-5.67
1.16
6.59
10.86
14.24
16.87
18.81
20.11
20.93
21.49
22.04
22.75
23.67
24.69
25.65
26.45
26.99
27.30
27.43
27.40
27.18
26.71
25.90
24.66
22.98
20.96
18.75
16.56
14.59
12.90
11.43
10.00
8.43
6.67
4.82
3.08
1.62
0.49
-0.44
-1.41
-2.63
-4.23
-6.25
-8.61
-11.17
-13.83
-16.48
-19.05
-21.59
-24.21
-27.10
-30.46
-34.43
-38.83
-43.21
-46.82
-48.84
-48.62
-45.82
-40.61
-33.51
-25.32
-16.88
-8.93
-1.97
3.72
8.14
11.42
13.81
15.54
16.81
17.75
18.49
19.16
19.92
20.88
22.09
23.48
24.87
26.10
27.03
27.63
27.96
28.15
28.24
28.22
27.99
27.38
26.28
24.67
22.66
20.54
18.57
16.95
15.61
14.33
12.75
10.67
8.11
5.35
2.80
0.76
-0.74
-1.95
-3.27
-5.02
-7.34
-10.05
-12.84
-15.39
-17.50
-19.23
-20.81
-22.58
-24.87
-27.92
-31.76
-36.19
-40.74
-44.69
-47.25
-47.68
-45.59
-41.01
-34.43
-26.69
-18.73
-11.38
-5.13
-0.11
3.82
6.86
9.17
10.81
11.78
12.19
12.29
12.49
13.14
14.41
16.19
18.15
19.99
21.56
22.90
24.15
25.35
26.34
26.80
26.48
25.33
23.56
21.53
19.51
17.62
15.77
13.77
11.55
9.18
6.83
4.69
2.81
1.14
-0.50
-2.26
-4.21
-6.33
-8.53
-10.75
-12.93
-15.10
-17.28
-19.55
-22.02
-24.85
-28.19
-32.15
-36.55
-40.93
-44.50
-46.33
-45.70
-42.25
-36.26
-28.42
-19.75
-11.23
-3.57
2.82
7.87
11.69
14.47
16.37
17.54
18.11
18.25
18.25
18.40
18.91
19.86
21.10
22.40
23.55
24.47
25.15
25.63
25.83
25.61
24.84
23.47
21.61
19.46
17.20
14.99
12.89
10.92
9.15
7.61
6.28
4.99
3.50
1.53
-1.02
-4.10
-7.46
-10.82
-13.97
-16.82
-19.40
-21.81
-24.21
-26.76
-29.66
-33.03
-36.83
-40.72
-44.06
-46.01
-45.77
-42.86
-37.29
-29.64
-20.82
-11.86
-3.62
3.36
8.87
13.01
15.97
17.99
19.22
19.78
19.80
19.45
18.95
18.53
18.31
18.34
18.58
18.92
19.31
19.70
20.04
20.22
20.14
19.67
18.78
17.56
16.14
14.70
13.25
11.73
9.92
7.70
5.04
2.12
-0.82
-3.61
-6.24
-8.87
-11.66
-14.77
-18.19
-21.83
-25.65
-29.55
-33.34
-36.58
-38.61
-38.70
-36.35
-31.55
-24.86
-17.25
-9.69
-2.95
2.67
7.18
10.77
13.57
15.62
16.95
17.62
17.86
17.99
18.36
19.21
20.57
22.28
24.04
25.57
26.64
27.19
27.27
26.97
26.35
25.41
24.09
22.34
20.16
17.66
15.02
12.44
10.05
7.94
6.09
4.44
2.81
1.03
-1.05
-3.46
-6.05
-8.62
-10.98
-13.06
-14.95
-16.88
-19.09
-21.76
-25.02
-28.85
-33.14
-37.59
-41.63
-44.47
-45.22
-43.30
-38.60
-31.61
-23.28
-14.73
-6.85
-0.19
5.07
9.01
11.81
13.66
14.74
15.30
15.59
15.94
16.57
17.60
19.00
20.64
22.33
23.89
25.22
26.31
27.18
27.86
28.30
28.41
28.07
27.20
25.83
24.06
22.05
19.94
17.78
15.57
13.32
11.05
8.84
6.78
4.94
3.31
1.83
0.36
-1.23
-3.03
-5.10
-7.43
-9.90
-12.39
-14.75
-16.95
-19.09
-21.41
-24.23
-27.76
-31.99
-36.59
-40.91
-44.09
-45.32
-44.00
-39.98
-33.63
-25.71
-17.21
-9.08
-1.97
3.80
8.23
11.49
13.79
15.30
16.14
16.43
16.37
16.24
16.30
16.80
17.76
19.05
20.31
21.16
21.38
21.00
20.28
19.59
19.15
18.90
18.60
17.94
16.73
15.05
13.14
11.32
9.79
8.55
7.48
6.39
5.09
3.51
1.58
-0.68
-3.28
-6.10
-8.99
-11.74
-14.16
-16.12
-17.65
-18.93
-20.33
-22.21
-24.82
-28.17
-31.88
-35.32
-37.70
-38.29
-36.61
-32.59
-26.57
-19.22
-11.35
-3.77
2.88
8.26
12.29
15.10
16.94
18.00
18.48
18.54
18.42
18.37
18.64
19.36
20.47
21.75
22.90
23.73
24.16
24.30
24.31
24.29
24.18
23.81
22.98
21.54
19.53
17.07
14.36
11.60
8.89
6.27
3.75
1.36
-0.86
-2.86
-4.66
-6.41
-8.23
-10.25
-12.47
-14.82
-17.16
-19.39
-21.52
-23.68
-26.08
-28.97
-32.48
-36.49
-40.54
-43.95
-45.87
-45.60
-42.76
-37.45
-30.23
-22.00
-13.68
-6.06
0.42
5.61
9.62
12.68
14.98
16.64
17.77
18.42
18.72
18.84
18.99
19.35
19.99
20.86
21.82
22.68
23.31
23.61
23.54
23.12
22.34
21.27
19.92
18.38
16.73
15.09
13.51
12.01
10.50
8.85
6.95
4.77
2.41
-0.00
-2.33
-4.47
-6.44
-8.30
-10.13
-11.98
-13.88
-15.80
-17.75
-19.72
-21.78
-24.01
-26.55
-29.50
-32.86
-36.52
-40.08
-42.96
-44.45
-43.93
-41.05
-35.92
-29.08
-21.33
-13.54
-6.35
-0.10
5.10
9.28
12.46
14.66
15.97
16.59
16.86
17.14
17.66
18.47
19.47
20.48
21.42
22.29
23.15
24.02
24.84
25.41
25.52
25.05
23.98
22.42
20.55
18.55
16.57
14.66
12.80
11.00
9.25
7.58
6.05
4.70
3.50
2.37
1.18
-0.17
-1.77
-3.64
-5.76
-8.11
-10.65
-13.35
-16.12
-18.85
-21.45
-23.93
-26.45
-29.26
-32.57
-36.33
-40.08
-43.04
-44.28
-43.09
-39.28
-33.23
-25.79
-17.93
-10.47
-3.90
1.61
6.04
9.46
11.93
13.53
14.41
14.80
14.95
15.11
15.45
16.05
16.94
18.04
19.25
20.43
21.42
22.15
22.58
22.70
22.57
22.14
21.37
20.19
18.60
16.70
14.65
12.60
10.69
8.95
7.34
5.79
4.21
2.51
0.64
-1.43
-3.72
-6.13
-8.53
-10.76
-12.74
-14.47
-16.15
-18.04
-20.40
-23.41
-27.03
-30.95
-34.61
-37.34
-38.44
-37.49
-34.39
-29.41
-23.08
-16.03
-8.87
-2.11
3.84
8.68
12.24
14.56
15.86
16.48
16.79
17.03
17.30
17.64
18.09
18.75
19.71
20.94
22.25
23.39
24.10
24.30
24.06
23.55
22.91
22.13
21.10
19.66
17.74
15.41
12.87
10.37
8.12
6.22
4.69
3.45
2.38
1.36
0.22
-1.19
-2.97
-5.13
-7.62
-10.24
-12.80
-15.14
-17.24
-19.20
-21.25
-23.68
-26.69
-30.31
-34.32
-38.21
-41.31
-42.87
-42.34
-39.46
-34.38
-27.61
-19.87
-11.96
-4.52
1.99
7.34
11.50
14.59
16.76
18.19
19.03
19.47
19.66
19.80
20.07
20.58
21.39
22.46
23.63
24.77
25.76
26.59
27.24
27.70
27.88
27.62
26.80
25.39
23.50
21.37
19.22
17.19
15.24
13.30
11.26
9.18
7.13
5.20
3.43
1.70
-0.12
-2.10
-4.25
-6.49
-8.72
-10.89
-12.97
-14.95
-16.85
-18.63
-20.39
-22.24
-24.38
-26.95
-29.99
-33.34
-36.53
-38.96
-39.93
-38.90
-35.62
-30.28
-23.48
-16.05
-8.89
-2.63
2.39
6.19
9.02
11.16
12.84
14.16
15.17
15.94
16.55
17.09
17.68
18.35
19.08
19.76
20.30
20.66
20.84
20.87
20.73
20.37
19.69
18.63
17.21
15.53
13.75
12.02
10.45
9.03
7.77
6.65
5.65
4.80
4.02
3.25
2.33
1.17
-0.29
-1.99
-3.87
-5.84
-7.87
-9.96
-12.13
-14.36
-16.67
-19.10
-21.77
-24.85
-28.38
-32.16
-35.65
-38.08
-38.70
-37.05
-33.17
-27.56
-20.99
-14.19
-7.67
-1.71
3.61
8.18
11.83
14.37
15.68
15.87
15.29
14.44
13.80
13.64
14.01
14.74
15.60
16.39
17.04
17.60
18.16
18.74
19.25
19.51
19.33
18.62
17.36
15.64
13.57
11.30
9.00
6.82
4.89
3.24
1.78
0.29
-1.45
-3.56
-5.96
-8.45
-10.78
-12.81
-14.52
-16.05
-17.51
-19.04
-20.71
-22.71
-25.20
-28.29
-31.81
-35.27
-37.85
-38.73
-37.37
-33.72
-28.24
-21.71
-14.92
-8.49
-2.76
2.09
6.02
8.99
11.00
12.16
12.72
13.02
13.38
13.96
14.78
15.72
16.62
17.42
18.09
18.63
19.05
19.33
19.41
19.29
18.99
18.57
18.02
17.33
16.42
15.26
13.84
12.23
10.53
8.83
7.18
5.59
4.10
2.69
1.38
0.10
-1.28
-2.91
-4.92
-7.28
-9.90
-12.57
-15.10
-17.38
-19.44
-21.40
-23.47
-25.90
-28.82
-32.20
-35.70
-38.71
-40.42
-40.13
-37.50
-32.69
-26.36
-19.42
-12.70
-6.78
-1.89
2.03
5.14
7.60
9.54
11.01
12.10
12.93
13.63
14.35
15.18
16.14
17.20
18.29
19.35
20.37
21.32
22.14
22.73
22.96
22.72
22.03
20.98
19.74
18.46
17.20
15.91
14.46
12.78
10.86
8.82
6.84
5.08
3.56
2.21
0.88
-0.65
-2.48
-4.60
-6.92
-9.28
-11.57
-13.72
-15.76
-17.71
-19.59
-21.39
-23.14
-25.01
-27.20
-29.85
-32.87
-35.83
-37.96
-38.49
-36.87
-33.06
-27.56
-21.16
-14.74
-8.90
-3.95
0.15
3.51
6.27
8.45
10.03
10.99
11.39
11.40
11.27
11.30
11.70
12.53
13.69
14.98
16.18
17.19
17.99
18.63
19.09
19.31
19.18
18.59
17.55
16.15
14.58
12.97
11.35
9.70
7.94
6.07
4.15
2.31
0.66
-0.80
-2.17
-3.58
-5.18
-6.98
-8.93
-10.89
-12.74
-14.42
-15.96
-17.53
-19.31
-21.48
-24.11
-27.13
-30.25
-32.98
-34.68
-34.77
-32.84
-28.87
-23.24
-16.62
-9.80
-3.50
1.82
6.00
9.09
11.25
12.68
13.55
13.95
14.00
13.77
13.34
12.81
12.30
11.89
11.73
11.88
12.38
13.19
14.24
15.38
16.48
17.42
18.04
18.26
17.97
17.18
15.98
14.54
13.06
11.62
10.18
8.63
6.83
4.80
2.70
0.75
-0.84
-2.08
-3.13
-4.21
-5.55
-7.22
-9.14
-11.16
-13.10
-14.84
-16.33
-17.63
-18.90
-20.39
-22.37
-25.05
-28.35
-31.92
-35.12
-37.18
-37.49
-35.69
-31.86
-26.41
-20.00
-13.35
-7.15
-1.90
2.15
5.01
6.97
8.43
9.81
11.38
13.21
15.18
17.07
18.69
19.95
20.84
21.41
21.68
21.66
21.35
20.81
20.14
19.46
18.91
18.50
18.20
17.87
17.37
16.59
15.51
14.20
12.74
11.21
9.64
8.04
6.35
4.57
2.70
0.77
-1.15
-3.02
-4.80
-6.56
-8.31
-10.09
-11.94
-13.82
-15.68
-17.45
-19.05
-20.50
-21.96
-23.67
-25.92
-28.83
-32.22
-35.57
-38.12
-39.12
-38.09
-34.98
-30.17
-24.27
-17.93
-11.69
-5.92
-0.81
3.47
6.85
9.29
10.85
11.70
12.11
12.33
12.59
13.05
13.76
14.72
15.86
17.06
18.15
18.98
19.46
19.57
19.37
18.94
18.33
17.56
16.65
15.58
14.35
13.02
11.65
10.27
8.92
7.63
6.37
5.14
3.90
2.65
1.36
-0.03
-1.56
-3.34
-5.36
-7.58
-9.82
-11.87
-13.55
-14.83
-15.86
-16.88
-18.17
-19.95
-22.30
-25.11
-28.10
-30.78
-32.55
-32.82
-31.21
-27.72
-22.75
-16.93
-10.97
-5.40
-0.51
3.65
7.09
9.83
11.84
13.08
13.59
13.47
12.99
12.45
12.17
12.38
13.17
14.44
15.94
17.37
18.46
19.05
19.12
18.79
18.19
17.45
16.64
15.76
14.79
13.70
12.48
11.19
9.85
8.51
7.20
5.89
4.55
3.12
1.53
-0.32
-2.49
-4.94
-7.59
-10.31
-12.96
-15.48
-17.87
-20.29
-22.93
-26.02
-29.66
-33.71
-37.74
-41.07
-42.93
-42.68
-40.08
-35.37
-29.16
-22.24
-15.33
-8.93
-3.28
1.58
5.71
9.15
11.98
14.24
15.97
17.21
18.04
18.58
18.95
19.33
19.78
20.33
20.90
21.42
21.83
22.11
22.26
22.24
21.95
21.27
20.16
18.67
16.96
15.22
13.63
12.24
11.06
9.99
8.91
7.73
6.35
4.71
2.77
0.51
-2.02
-4.72
-7.47
-10.11
-12.54
-14.69
-16.56
-18.23
-19.89
-21.79
-24.20
-27.27
-30.88
-34.62
-37.85
-39.78
-39.84
-37.70
-33.49
-27.67
-20.93
-13.97
-7.36
-1.51
3.38
7.26
10.17
12.20
13.48
14.17
14.50
14.73
15.09
15.75
16.72
17.93
19.25
20.56
21.85
23.05
24.13
24.93
25.24
24.88
23.79
22.07
19.97
17.80
15.81
14.09
12.60
11.23
9.89
8.57
7.34
6.29
5.42
4.67
3.84
2.77
1.32
-0.50
-2.59
-4.79
-6.94
-8.97
-10.89
-12.71
-14.54
-16.47
-18.69
-21.43
-24.88
-29.04
-33.56
-37.77
-40.77
-41.78
-40.34
-36.46
-30.64
-23.64
-16.23
-9.08
-2.66
2.76
7.08
10.36
12.78
14.56
15.94
17.09
18.08
18.93
19.69
20.39
21.11
21.86
22.60
23.22
23.61
23.75
23.67
23.44
23.12
22.67
22.00
21.01
19.68
18.12
16.50
15.04
13.78
12.67
11.52
10.18
8.60
6.87
5.14
3.51
2.03
0.54
-1.15
-3.20
-5.64
-8.31
-10.95
-13.34
-15.38
-17.19
-19.11
-21.54
-24.80
-28.92
-33.58
-38.06
-41.49
-43.00
-41.96
-38.26
-32.22
-24.59
-16.33
-8.33
-1.24
4.63
9.25
12.76
15.31
17.03
17.99
18.30
18.12
17.71
17.34
17.24
17.53
18.15
18.97
19.79
20.51
21.08
21.51
21.81
21.95
21.85
21.40
20.52
19.21
17.51
15.55
13.48
11.43
9.50
7.74
6.10
4.51
2.84
0.98
-1.16
-3.58
-6.16
-8.71
-11.03
-13.02
-14.67
-16.11
-17.56
-19.29
-21.49
-24.22
-27.34
-30.41
-32.78
-33.72
-32.60
-29.21
-23.79
-17.11
-10.16
-3.86
1.23
4.94
7.49
9.24
10.49
11.38
11.83
11.79
11.28
10.57
10.11
10.38
11.77
14.35
17.86
21.73
25.26
27.74
28.58
27.48
24.48
20.07
15.05
10.36
6.73
4.50
3.48
3.21
3.28
3.60
4.43
6.11
8.73
11.88
14.69
16.19
15.67
13.09
8.91
3.98
-0.85
-5.02
-8.30
-10.80
-13.01
-15.74
-20.04
-26.80
-36.29
-47.74
-59.40
-69.00
-74.57
-75.19
-71.22
-64.03
-55.32
-46.54
-38.48
-31.45
-25.55
-20.83
-17.38
-15.13
-13.71
-12.48
-10.80
-8.26
-4.88
-0.99
2.90
6.37
9.30
11.80
14.11
16.48
19.02
21.69
24.28
26.54
28.30
29.45
30.00
30.03
29.63
28.85
27.73
26.34
24.77
23.21
21.82
20.67
19.62
18.39
16.69
14.31
11.26
7.68
3.85
-0.01
-3.74
-7.33
-10.88
-14.56
-18.54
-22.89
-27.57
-32.30
-36.61
-39.82
-41.21
-40.23
-36.66
-30.67
-22.86
-13.96
-4.63
4.58
13.35
21.41
28.42
34.04
38.04
40.50
41.96
43.35
45.72
49.89
56.07
63.75
71.88
79.31
85.32
90.01
94.35
99.76
107.61
118.45
131.81
146.20
159.64
170.20
176.63
178.62
176.86
172.89
168.63
165.69
164.75
165.09
164.97
162.59
157.19
149.44
141.04
133.30
125.87
116.41
101.37
77.55
43.39
-0.06
-49.09
-97.64
-138.39
-164.11
-169.42
-152.62
-116.68
-68.98
-19.36
22.43
49.29
57.93
48.67
24.28
-11.45
-54.98
-103.61
-155.30
-207.70
-257.16
-298.51
-326.42
-337.88
-334.54
-322.48
-309.24
-299.75
-293.58
-285.56
-269.69
-243.69
-211.21
-180.20
-158.37
-148.99
-149.50
-153.57
-154.88
-150.31
-140.46
-127.83
-114.58
-101.13
-86.55
-69.76
-50.79
-30.93
-12.28
3.11
14.03
20.41
23.29
24.50
26.10
29.83
36.57
45.97
56.47
65.67
71.12
71.26
66.05
57.08
47.02
38.64
33.96
33.76
37.34
42.92
48.30
51.63
52.00
49.64
45.86
42.38
40.66
41.47
44.52
48.73
52.71
55.34
56.20
55.52
53.93
51.98
49.85
47.42
44.50
41.16
37.96
35.65
34.80
35.43
36.86
38.12
38.40
37.43
35.54
33.30
31.17
29.35
27.92
27.12
27.47
29.67
34.30
41.47
50.72
61.33
72.65
84.27
95.91
107.13
117.11
124.80
129.37
130.66
129.45
127.19
125.48
125.36
126.74
128.22
127.43
121.70
109.08
88.92
62.24
31.32
-1.23
-33.49
-65.06
-97.28
-133.00
-175.56
-227.38
-288.30
-354.59
-419.08
-472.98
-508.55
-521.92
-514.39
-491.63
-461.15
-429.35
-399.67
-372.54
-346.79
-321.39
-296.42
-272.85
-251.58
-232.65
-215.06
-197.35
-178.27
-157.31
-134.87
-112.05
-90.14
-70.24
-52.90
-37.96
-24.52
-11.16
3.66
21.06
41.30
63.58
86.28
107.62
126.27
142.10
156.15
170.41
187.20
208.76
236.71
271.33
310.87
350.72
383.46
400.14
392.86
357.98
298.37
223.45
146.36
79.29
29.26
-3.63
-24.41
-39.26
-51.54
-60.18
-61.14
-50.66
-28.00
4.01
40.79
78.51
115.68
152.55
189.11
223.37
251.12
267.70
270.20
259.15
238.37
213.31
188.90
168.12
151.67
138.69
128.00
118.93
111.52
106.22
103.24
102.02
101.36
99.79
96.33
90.87
84.08
76.83
69.54
61.90
53.09
42.41
29.81
16.09
2.60
-9.33
-18.81
-25.55
-29.70
-31.51
-31.08
-28.28
-22.89
-14.72
-3.86
9.22
23.64
38.23
51.75
63.13
71.55
76.51
77.84
75.77
70.97
64.62
58.16
52.83
49.18
46.90
44.90
41.91
37.02
30.01
21.37
11.99
2.88
-5.11
-11.32
-15.39
-17.27
-17.29
-16.05
-14.32
-12.73
-11.72
-11.47
-12.03
-13.49
-15.85
-18.94
-22.26
-25.15
-27.11
-28.13
-28.84
-30.11
-32.62
-36.40
-40.80
-44.96
-48.40
-51.39
-54.82
-59.54
-65.75
-72.75
-79.17
-83.63
-85.31
-84.18
-80.76
-75.76
-69.77
-63.13
-56.02
-48.51
-40.71
-32.73
-24.69
-16.65
-8.72
-0.99
6.45
13.49
20.08
26.24
32.20
38.31
44.89
51.92
58.95
65.21
70.01
73.11
74.97
76.53
78.71
81.90
85.76
89.48
92.19
93.50
93.59
93.08
92.66
92.78
93.48
94.39
94.82
93.90
90.76
84.79
75.75
63.77
49.29
32.97
15.83
-0.72
-14.97
-25.11
-29.81
-28.67
-22.45
-12.86
-2.16
7.37
13.72
15.27
11.01
0.82
-14.27
-31.83
-48.40
-60.36
-65.02
-61.53
-51.18
-36.88
-22.24
-10.42
-3.34
-1.35
-3.49
-7.92
-12.59
-15.87
-16.86
-15.59
-12.89
-10.07
-8.50
-9.18
-12.48
-18.12
-25.29
-33.05
-40.61
-47.56
-53.83
-59.54
-64.74
-69.26
-72.67
-74.34
-73.47
-69.15
-60.46
-46.72
-27.92
-5.08
19.57
42.78
60.96
70.99
70.92
60.49
41.14
15.52
-13.14
-41.80
-68.19
-91.11
-110.42
-126.62
-140.40
-152.24
-162.17
-169.77
-174.41
-175.34
-171.95
-163.73
-150.41
-131.98
-108.77
-81.49
-51.21
-19.11
13.95
47.64
81.95
116.60
150.18
179.75
201.30
211.10
207.19
190.22
163.36
130.91
96.73
63.13
30.77
-0.37
-29.78
-55.61
-74.93
-84.89
-84.14
-73.75
-57.08
-38.52
-21.90
-9.25
-0.64
5.02
8.88
11.31
12.09
11.05
8.85
7.02
7.27
10.51
16.18
22.42
26.87
27.90
25.41
21.00
17.33
16.96
21.36
30.26
41.85
53.56
63.18
69.66
73.26
75.14
76.56
78.19
79.80
80.38
78.67
73.65
64.87
52.58
37.63
21.37
5.48
-8.14
-17.59
-21.51
-19.44
-12.08
-1.18
11.11
22.82
32.79
40.69
46.67
50.99
53.48
53.63
50.96
45.50
38.12
30.32
23.81
19.73
18.22
18.23
17.91
15.27
8.83
-1.84
-16.20
-33.23
-52.10
-72.61
-95.05
-119.53
-145.18
-169.65
-189.54
-201.39
-203.15
-195.16
-180.11
-162.06
-144.87
-131.07
-121.50
-115.76
-112.87
-111.87
-111.80
-111.44
-109.27
-103.79
-94.21
-80.97
-65.87
-51.50
-40.23
-33.44
-31.08
-31.91
-33.97
-35.25
-34.21
-30.17
-23.46
-15.39
-7.84
-2.67
-1.01
-2.83
-6.93
-11.40
-14.41
-14.91
-13.04
-9.92
-7.10
-5.78
-6.36
-8.41
-11.07
-13.62
-15.65
-17.07
-17.73
-17.05
-14.23
-8.76
-1.02
7.49
14.54
18.08
17.17
12.43
5.66
-1.03
-6.09
-9.04
-10.39
-11.13
-12.15
-13.89
-16.28
-18.88
-21.20
-22.99
-24.23
-25.16
-26.10
-27.34
-29.10
-31.54
-34.73
-38.57
-42.65
-46.14
-48.00
-47.35
-43.79
-37.77
-30.44
-23.22
-17.37
-13.52
-11.65
-11.19
-11.37
-11.49
-11.18
-10.48
-9.70
-9.30
-9.61
-10.69
-12.32
-14.12
-15.77
-17.19
-18.55
-20.09
-22.02
-24.44
-27.47
-31.36
-36.61
-43.67
-52.79
-63.71
-75.65
-87.57
-98.56
-108.14
-116.33
-123.60
-130.45
-137.26
-144.08
-150.66
-156.51
-160.74
-162.10
-158.90
-149.32
-132.04
-106.83
-74.91
-38.69
-1.10
35.36
69.19
99.91
127.70
152.77
175.07
194.26
209.96
221.95
230.25
234.86
235.51
231.65
222.62
207.98
187.95
163.61
136.87
110.29
86.40
67.12
53.13
43.65
36.80
30.35
22.64
13.17
2.42
-8.59
-19.16
-29.21
-39.07
-48.98
-58.58
-66.86
-72.66
-75.29
-74.92
-72.50
-69.26
-66.23
-63.89
-62.27
-61.14
-60.21
-59.11
-57.41
-54.66
-50.59
-45.29
-39.17
-32.77
-26.46
-20.24
-13.81
-6.81
0.99
9.58
18.80
28.48
38.53
48.72
58.60
67.40
74.19
78.25
79.41
78.13
75.41
72.42
70.25
69.71
71.20
74.69
79.72
85.40
90.59
94.26
95.77
94.99
92.26
88.12
83.10
77.51
71.51
65.14
58.41
51.35
44.01
36.56
29.29
22.59
16.79
12.13
8.72
6.86
7.13
10.38
17.23
27.57
40.07
52.50
62.48
68.42
70.15
68.75
65.73
62.22
58.41
53.86
48.08
41.32
34.56
29.19
26.15
25.54
26.52
27.74
28.16
27.48
26.26
25.59
26.49
29.50
34.48
40.73
47.33
53.41
58.34
61.75
63.40
63.17
60.96
56.81
50.92
43.68
35.69
27.64
20.14
13.60
8.04
3.16
-1.60
-6.86
-12.99
-20.00
-27.55
-35.17
-42.49
-49.54
-56.73
-64.66
-73.76
-83.97
-94.70
-105.02
-114.04
-121.18
-126.31
-129.51
-130.81
-130.00
-126.69
-120.60
-112.00
-101.94
-92.07
-84.27
-80.05
-79.98
-83.55
-89.22
-94.79
-97.78
-95.79
-86.90
-69.92
-44.70
-12.24
25.32
64.74
102.17
133.56
155.30
164.69
160.46
142.79
113.44
75.37
32.47
-10.75
-49.30
-77.91
-91.52
-86.52
-62.21
-21.85
27.44
76.69
118.01
147.07
163.99
171.93
174.41
173.03
167.05
154.77
135.90
113.18
91.89
77.78
74.41
81.42
94.60
107.71
114.84
112.31
99.38
77.76
50.59
21.22
-7.51
-33.55
-55.46
-72.35
-83.85
-90.28
-92.87
-93.63
-94.87
-98.48
-105.23
-114.43
-124.06
-131.46
-134.38
-132.12
-126.28
-120.71
-120.62
-130.72
-153.49
-187.78
-228.66
-268.54
-299.27
-314.26
-310.08
-287.05
-249.24
-203.66
-158.72
-121.89
-97.28
-84.18
-77.47
-70.17
-56.93
-36.53
-12.23
10.44
27.20
37.19
43.07
49.03
57.98
69.87
82.05
91.02
93.90
89.70
78.24
59.75
34.90
5.17
-26.69
-56.65
-80.62
-96.14
-102.93
-103.79
-102.85
-103.18
-105.17
-106.15
-101.63
-87.78
-63.28
-28.77
13.11
59.87
110.75
166.91
230.26
301.17
378.40
451.76
512.29
551.52
565.18
554.77
526.68
489.34
449.84
411.64
374.57
337.66
300.30
263.79
230.66
202.85
180.15
159.95
138.41
112.11
80.10
43.37
4.82
-31.82
-62.87
-85.51
-98.30
-101.55
-97.40
-88.74
-78.82
-70.10
-63.80
-60.20
-59.47
-62.30
-70.02
-83.89
-104.13
-129.40
-157.15
-184.53
-209.58
-231.96
-253.29
-276.84
-306.40
-344.42
-390.30
-439.18
-482.30
-509.12
-510.58
-482.32
-426.22
-350.15
-265.90
-186.31
-122.93
-84.42
-75.77
-97.76
-146.34
-212.44
-283.06
-343.86
-382.82
-393.50
-376.44
-337.86
-286.71
-230.98
-175.41
-121.43
-69.01
-18.67
27.24
65.30
92.96
110.24
120.46
128.80
140.14
157.18
179.62
204.08
225.16
236.74
233.93
215.17
183.87
148.64
121.17
112.30
127.29
162.93
207.94
246.73
264.96
254.50
215.58
155.49
85.20
15.48
-45.47
-92.72
-124.04
-138.76
-137.23
-120.83
-92.45
-57.04
-21.19
7.99
24.58
25.71
12.56
-10.01
-35.08
-56.07
-68.58
-71.11
-64.43
-50.64
-32.15
-11.39
9.01
26.11
37.18
40.44
35.77
24.94
10.83
-3.57
-16.08
-25.75
-32.72
-37.83
-42.08
-45.95
-48.81
-48.85
-43.63
-31.33
-12.10
11.49
35.14
54.49
66.75
71.59
70.72
66.72
61.87
57.57
54.54
53.12
53.51
55.52
58.29
60.12
59.00
53.38
42.95
29.05
14.42
2.42
-4.08
-3.63
3.40
15.02
28.40
40.75
50.00
55.22
56.49
54.65
50.86
46.26
41.65
37.38
33.46
29.77
26.31
23.31
21.14
19.98
19.64
19.43
18.42
15.90
11.80
6.87
2.41
-0.27
-0.43
1.83
5.85
10.86
16.39
22.41
29.01
36.07
42.95
48.74
52.54
53.89
52.93
50.27
46.77
43.18
40.09
37.86
36.75
36.84
38.12
40.43
43.42
46.60
49.29
50.77
50.42
48.00
43.68
37.92
31.21
23.80
15.72
6.93
-2.28
-11.19
-18.85
-24.57
-28.29
-30.79
-33.32
-36.96
-42.11
-48.27
-54.31
-58.88
-60.95
-59.99
-56.09
-49.70
-41.56
-32.54
-23.49
-15.12
-7.98
-2.32
1.78
4.41
5.66
5.79
5.21
4.56
4.62
6.06
9.12
13.49
18.44
22.99
26.33
28.05
28.22
27.31
25.97
24.77
24.00
23.60
23.24
22.60
21.47
19.92
18.17
16.42
14.68
12.72
10.29
7.20
3.56
-0.41
-4.55
-8.92
-13.67
-18.80
-23.79
-27.63
-29.15
-27.51
-22.64
-15.27
-6.64
2.04
9.94
16.78
22.59
27.50
31.51
34.51
36.41
37.24
37.15
36.35
35.13
33.74
32.41
31.26
30.33
29.57
28.91
28.32
27.79
27.29
26.72
25.87
24.51
22.61
20.33
17.97
15.80
13.80
11.72
9.21
6.00
2.06
-2.39
-7.16
-12.15
-17.35
-22.71
-27.88
-32.22
-34.96
-35.48
-33.61
-29.65
-24.21
-18.00
-11.60
-5.46
0.07
4.66
8.05
10.14
11.05
11.15
10.97
11.03
11.68
12.99
14.80
16.73
18.32
19.13
18.85
17.36
14.76
11.34
7.60
4.10
1.39
-0.10
-0.25
0.74
2.34
3.86
4.61
4.11
2.14
-1.26
-5.89
-11.53
-17.95
-24.97
-32.27
-39.30
-45.26
-49.20
-50.26
-47.94
-42.35
-34.29
-25.04
-15.93
-7.96
-1.57
3.26
6.87
9.72
12.16
14.42
16.60
18.67
20.43
21.62
21.99
21.56
20.60
19.52
18.64
17.91
16.88
14.95
11.69
7.12
1.70
-3.94
-9.14
-13.33
-15.94
-16.48
-14.67
-10.75
-5.66
-0.90
2.07
2.43
0.37
-3.04
-6.52
-9.26
-11.31
-13.37
-16.16
-19.75
-23.32
-25.36
-24.48
-20.01
-12.50
-3.47
5.18
11.98
16.30
18.46
19.24
19.37
19.18
18.71
17.95
17.15
16.87
17.71
19.94
23.26
26.85
29.84
31.60
32.10
31.77
31.20
30.95
31.29
32.24
33.61
34.99
35.79
35.44
33.51
30.09
25.92
22.24
20.37
20.99
23.77
27.37
29.97
30.07
27.12
21.72
15.29
9.46
5.39
3.28
2.38
1.19
-1.99
-8.43
-18.45
-31.05
-44.14
-55.06
-61.47
-62.24
-57.73
-49.81
-41.36
-35.48
-34.72
-40.17
-50.93
-64.27
-76.41
-84.04
-85.67
-82.22
-76.46
-71.49
-69.20
-69.43
-70.39
-69.81
-66.35
-60.03
-52.01
-43.70
-35.98
-28.89
-22.02
-15.01
-7.98
-1.47
3.82
7.64
10.43
13.19
17.07
22.70
29.76
37.08
43.10
46.61
47.26
45.52
42.35
38.70
35.13
31.76
28.49
25.20
21.92
18.91
16.49
14.94
14.31
14.36
14.56
14.38
13.47
11.94
10.35
9.39
9.54
10.62
11.91
12.47
11.68
9.66
7.12
5.04
4.08
4.40
5.72
7.72
10.32
13.67
17.95
22.99
28.15
32.45
35.04
35.49
33.96
31.03
27.40
23.64
20.05
16.77
13.90
11.54
9.70
8.27
6.85
4.92
1.92
-2.43
-7.97
-14.13
-20.08
-24.91
-27.92
-28.70
-27.22
-23.76
-18.88
-13.29
-7.72
-2.77
1.26
4.33
6.62
8.34
9.55
10.17
10.08
9.29
8.05
6.75
5.84
5.54
5.82
6.38
6.87
6.99
6.67
6.00
5.16
4.24
3.23
2.05
0.54
-1.44
-3.94
-6.93
-10.26
-13.74
-17.19
-20.53
-23.84
-27.36
-31.45
-36.43
-42.38
-49.01
-55.65
-61.41
-65.22
-66.07
-63.06
-55.54
-43.35
-26.90
-7.32
13.84
34.95
54.70
72.32
87.44
99.77
108.79
113.80
114.22
110.07
102.24
92.34
82.22
73.40
66.71
62.32
59.95
59.21
59.72
61.05
62.56
63.45
62.91
60.55
56.58
51.83
47.42
44.32
43.05
43.50
45.16
47.31
49.25
50.40
50.28
48.50
44.88
39.47
32.61
24.84
16.82
9.06
1.88
-4.67
-10.67
-16.30
-21.71
-26.98
-32.11
-36.96
-41.25
-44.56
-46.49
-46.78
-45.46
-42.89
-39.63
-36.28
-33.26
-30.74
-28.67
-26.91
-25.30
-23.75
-22.10
-20.19
-17.85
-15.05
-11.94
-8.91
-6.50
-5.17
-5.18
-6.48
-8.69
-11.24
-13.53
-15.12
-15.83
-15.85
-15.58
-15.54
-16.12
-17.49
-19.63
-22.36
-25.47
-28.64
-31.46
-33.40
-33.98
-33.01
-30.74
-27.82
-25.01
-22.76
-21.06
-19.48
-17.52
-14.94
-12.00
-9.25
-7.28
-6.34
-6.32
-6.74
-7.06
-6.85
-5.86
-4.06
-1.55
1.45
4.70
7.91
10.91
13.58
15.84
17.66
18.94
19.63
19.72
19.34
18.70
18.07
17.56
17.14
16.54
15.50
13.84
11.58
9.00
6.45
4.19
2.30
0.51
-1.62
-4.55
-8.47
-13.20
-18.19
-22.80
-26.59
-29.53
-31.96
-34.34
-36.96
-39.78
-42.51
-44.86
-46.81
-48.57
-50.52
-52.93
-55.85
-59.08
-62.26
-64.98
-66.85
-67.50
-66.60
-63.94
-59.52
-53.61
-46.77
-39.62
-32.67
-26.27
-20.55
-15.53
-11.22
-7.67
-4.88
-2.77
-1.18
0.11
1.29
2.51
3.86
5.44
7.31
9.48
11.88
14.29
16.50
18.30
19.61
20.42
20.76
20.59
19.84
18.45
16.54
14.34
12.14
10.13
8.27
6.36
4.12
1.37
-1.86
-5.35
-8.82
-12.05
-14.95
-17.59
-20.17
-22.90
-25.91
-29.14
-32.25
-34.73
-35.97
-35.50
-33.14
-29.06
-23.70
-17.62
-11.37
-5.35
0.08
4.66
8.17
10.50
11.69
11.97
11.70
11.25
10.89
10.76
10.89
11.25
11.83
12.60
13.58
14.75
16.06
17.40
18.62
19.55
20.08
20.07
19.53
18.47
16.98
15.16
13.06
10.74
8.25
5.69
3.14
0.68
-1.71
-4.10
-6.54
-9.00
-11.34
-13.42
-15.19
-16.87
-18.82
-21.42
-24.86
-28.90
-32.97
-36.27
-38.10
-38.00
-35.89
-31.98
-26.69
-20.54
-14.07
-7.82
-2.24
2.37
5.90
8.45
10.20
11.39
12.16
12.65
12.92
13.07
13.26
13.68
14.44
15.56
16.95
18.45
19.89
21.15
22.20
23.00
23.53
23.68
23.30
22.25
20.45
18.08
15.39
12.69
10.22
8.02
5.96
3.85
1.54
-0.98
-3.70
-6.46
-9.18
-11.80
-14.33
-16.78
-19.20
-21.70
-24.41
-27.43
-30.76
-34.16
-37.19
-39.29
-39.95
-38.78
-35.68
-30.85
-24.74
-17.92
-10.99
-4.43
1.38
6.27
10.15
12.99
14.85
15.80
16.04
15.81
15.43
15.20
15.29
15.76
16.49
17.32
18.08
18.77
19.40
20.06
20.73
21.29
21.53
21.21
20.24
18.69
16.79
14.85
13.09
11.60
10.29
8.97
7.44
5.58
3.34
0.79
-1.92
-4.63
-7.23
-9.66
-11.99
-14.41
-17.13
-20.34
-24.09
-28.18
-32.15
-35.31
-36.89
-36.29
-33.25
-27.99
-21.17
-13.64
-6.25
0.44
6.15
10.85
14.57
17.29
18.95
19.57
19.31
18.55
17.74
17.30
17.44
18.18
19.32
20.63
21.89
22.96
23.75
24.22
24.30
23.92
22.99
21.45
19.32
16.72
13.88
11.10
8.63
6.56
4.80
3.08
1.11
-1.26
-3.96
-6.78
-9.47
-11.89
-14.11
-16.38
-19.03
-22.36
-26.50
-31.34
-36.44
-41.13
-44.57
-45.93
-44.67
-40.64
-34.22
-26.15
-17.38
-8.81
-1.13
5.27
10.33
14.11
16.79
18.54
19.50
19.77
19.47
18.75
17.80
16.81
15.94
15.23
14.60
13.88
12.91
11.56
9.83
7.80
5.54
3.06
0.29
-2.93
-6.73
-11.18
-16.23
-21.73
-27.47
-33.33
-39.29
-45.42
-51.85
-58.75
-66.20
-74.18
-82.55
-91.14
-99.73
-108.19
-116.45
-124.50
-132.28
-139.65
-146.24
-151.41
-154.17
-153.27
-147.38
-135.39
-116.79
-91.93
-62.01
-28.94
5.11
38.09
68.37
94.84
116.85
134.04
146.28
153.64
156.50
155.50
151.59
145.81
139.13
132.32
125.80
119.77
114.25
109.17
104.43
99.93
95.51
91.05
86.41
81.55
76.48
71.27
66.04
60.88
55.85
50.94
46.08
41.23
36.32
31.36
26.35
21.36
16.46
11.70
7.14
2.81
-1.30
-5.26
-9.19
-13.26
-17.70
-22.68
-28.23
-34.06
-39.51
-43.64
-45.46
-44.27
-39.90
-32.83
-24.04
-14.68
-5.77
2.04
8.49
13.59
17.48
20.28
22.07
22.95
23.01
22.50
21.72
21.01
20.65
20.81
21.47
22.48
23.62
24.66
25.38
25.65
25.42
24.75
23.72
22.45
20.98
19.27
17.20
14.67
11.69
8.35
4.84
1.36
-1.98
-5.12
-8.08
-10.92
-13.73
-16.63
-19.82
-23.49
-27.67
-32.07
-36.01
-38.57
-38.87
-36.34
-30.95
-23.29
-14.38
-5.33
2.85
9.56
14.59
18.10
20.40
21.76
22.34
22.18
21.36
20.08
18.74
17.82
17.65
18.24
19.29
20.33
20.93
20.94
20.49
19.84
19.15
18.37
17.31
15.82
13.89
11.74
9.66
7.79
6.11
4.37
2.36
-0.01
-2.61
-5.17
-7.48
-9.50
-11.43
-13.56
-16.16
-19.34
-23.02
-26.92
-30.63
-33.56
-35.08
-34.61
-31.76
-26.56
-19.49
-11.34
-3.03
4.63
11.11
16.15
19.70
21.81
22.63
22.37
21.38
20.05
18.82
17.97
17.66
17.88
18.49
19.32
20.15
20.78
21.07
20.96
20.54
19.95
19.40
18.99
18.69
18.35
17.74
16.68
15.12
13.17
11.06
9.03
7.24
5.67
4.17
2.52
0.55
-1.81
-4.45
-7.19
-9.84
-12.32
-14.65
-16.93
-19.34
-22.07
-25.30
-29.11
-33.42
-37.81
-41.58
-43.81
-43.66
-40.68
-34.91
-27.00
-17.96
-8.88
-0.64
6.20
11.46
15.17
17.48
18.62
18.81
18.30
17.36
16.26
15.31
14.72
14.61
14.94
15.55
16.19
16.69
16.95
17.02
16.99
16.90
16.72
16.26
15.34
13.85
11.83
9.47
6.98
4.56
2.29
0.11
-2.09
-4.47
-7.08
-9.87
-12.65
-15.13
-17.04
-18.22
-18.79
-19.07
-19.54
-20.63
-22.65
-25.60
-29.29
-33.24
-36.84
-39.37
-40.05
-38.31
-33.96
-27.31
-19.11
-10.35
-1.95
5.47
11.59
16.35
19.73
21.72
22.28
21.54
19.81
17.66
15.74
14.55
14.32
14.92
15.99
17.15
18.15
18.87
19.36
19.68
19.87
19.84
19.48
18.70
17.41
15.67
13.58
11.31
9.04
6.91
4.99
3.21
1.42
-0.52
-2.75
-5.33
-8.18
-11.16
-14.06
-16.71
-19.04
-21.15
-23.35
-25.96
-29.25
-33.15
-37.23
-40.73
-42.74
-42.51
-39.69
-34.46
-27.44
-19.57
-11.77
-4.77
1.09
5.75
9.32
11.96
13.78
14.82
15.21
15.13
14.87
14.72
14.89
15.43
16.23
17.11
17.86
18.35
18.50
18.37
18.10
17.79
17.51
17.11
16.37
15.08
13.14
10.72
8.15
5.80
3.87
2.37
1.05
-0.36
-2.07
-4.11
-6.40
-8.81
-11.21
-13.56
-15.88
-18.20
-20.58
-23.06
-25.70
-28.64
-31.95
-35.59
-39.25
-42.28
-43.90
-43.35
-40.27
-34.79
-27.54
-19.42
-11.28
-3.74
2.91
8.54
13.10
16.51
18.76
19.91
20.16
19.84
19.24
18.66
18.27
18.16
18.33
18.73
19.21
19.63
19.85
19.85
19.64
19.29
18.81
18.09
16.99
15.39
13.34
11.04
8.78
6.84
5.33
4.16
3.15
2.07
0.83
-0.58
-2.11
-3.71
-5.37
-7.09
-8.88
-10.66
-12.36
-13.93
-15.41
-16.97
-18.85
-21.32
-24.54
-28.43
-32.72
-36.85
-40.06
-41.53
-40.60
-37.05
-31.12
-23.62
-15.61
-8.07
-1.70
3.29
7.07
9.93
12.13
13.73
14.72
15.07
14.90
14.47
14.11
14.07
14.44
15.14
16.02
16.92
17.80
18.61
19.40
20.09
20.56
20.67
20.31
19.43
18.11
16.43
14.50
12.38
10.15
7.88
5.69
3.69
1.95
0.46
-0.92
-2.35
-3.98
-5.87
-7.94
-10.10
-12.20
-14.17
-16.06
-17.95
-19.96
-22.18
-24.72
-27.63
-30.89
-34.29
-37.40
-39.56
-40.01
-38.19
-33.91
-27.57
-19.96
-12.09
-4.80
1.39
6.36
10.20
13.12
15.20
16.51
17.08
17.03
16.64
16.20
15.99
16.15
16.69
17.53
18.52
19.56
20.51
21.31
21.88
22.19
22.26
22.07
21.64
20.88
19.73
18.04
15.79
13.08
10.13
7.28
4.78
2.73
1.05
-0.46
-2.08
-3.97
-6.12
-8.42
-10.67
-12.74
-14.60
-16.35
-18.08
-19.90
-21.81
-23.85
-26.17
-29.00
-32.48
-36.45
-40.34
-43.18
-43.97
-42.04
-37.37
-30.59
-22.72
-14.81
-7.62
-1.45
3.66
7.86
11.23
13.81
15.60
16.69
17.26
17.54
17.77
18.16
18.75
19.48
20.20
20.78
21.15
21.37
21.49
21.57
21.60
21.49
21.15
20.48
19.45
18.07
16.41
14.59
12.69
10.78
8.86
6.93
4.99
3.10
1.31
-0.30
-1.74
-3.12
-4.55
-6.14
-7.90
-9.70
-11.42
-12.99
-14.46
-15.99
-17.83
-20.19
-23.18
-26.81
-30.91
-35.15
-39.00
-41.80
-42.86
-41.69
-38.14
-32.51
-25.45
-17.82
-10.44
-3.86
1.66
6.11
9.59
12.19
13.94
14.87
15.06
14.69
14.09
13.63
13.59
14.14
15.20
16.59
18.05
19.39
20.53
21.43
22.10
22.49
22.56
22.26
21.62
20.78
19.91
19.16
18.49
17.73
16.65
15.07
13.01
10.67
8.34
6.25
4.46
2.82
1.07
-0.97
-3.35
-5.97
-8.66
-11.28
-13.80
-16.24
-18.65
-21.09
-23.63
-26.40
-29.51
-32.98
-36.58
-39.76
-41.77
-41.86
-39.54
-34.79
-28.10
-20.26
-12.19
-4.64
1.85
7.04
10.89
13.52
15.11
15.91
16.11
15.91
15.51
15.06
14.73
14.64
14.85
15.34
16.03
16.80
17.56
18.27
18.93
19.54
20.05
20.35
20.25
19.54
18.13
16.05
13.49
10.77
8.27
6.23
4.70
3.49
2.28
0.72
-1.32
-3.79
-6.43
-9.00
-11.38
-13.62
-15.92
-18.47
-21.37
-24.60
-28.09
-31.74
-35.38
-38.70
-41.21
-42.30
-41.32
-37.92
-32.19
-24.65
-16.14
-7.56
0.35
7.13
12.61
16.78
19.66
21.32
21.81
21.27
19.96
18.26
16.62
15.40
14.80
14.79
15.17
15.68
16.11
16.41
16.64
16.92
17.29
17.66
17.81
17.52
16.66
15.27
13.54
11.64
9.75
7.93
6.24
4.69
3.33
2.13
0.94
-0.41
-2.16
-4.35
-6.90
-9.55
-12.07
-14.30
-16.26
-18.15
-20.27
-22.88
-26.14
-30.04
-34.27
-38.32
-41.40
-42.73
-41.70
-38.11
-32.28
-24.95
-17.05
-9.46
-2.76
2.77
7.17
10.57
13.16
15.09
16.44
17.30
17.74
17.86
17.77
17.65
17.70
18.09
18.89
20.03
21.34
22.60
23.62
24.28
24.53
24.38
23.83
22.87
21.51
19.82
17.89
15.85
13.79
11.73
9.63
7.49
5.35
3.30
1.44
-0.17
-1.61
-3.03
-4.57
-6.34
-8.32
-10.37
-12.31
-14.04
-15.57
-17.07
-18.80
-20.99
-23.81
-27.24
-30.97
-34.43
-36.88
-37.60
-36.08
-32.21
-26.34
-19.17
-11.54
-4.20
2.30
7.75
12.13
15.52
17.99
19.56
20.26
20.16
19.51
18.57
17.68
17.04
16.73
16.70
16.86
17.10
17.36
17.63
17.86
17.97
17.87
17.47
16.80
15.93
14.97
13.99
12.94
11.78
10.42
8.87
7.17
5.46
3.80
2.23
0.72
-0.80
-2.36
-3.96
-5.60
-7.31
-9.14
-11.16
-13.36
-15.63
-17.84
-19.88
-21.79
-23.77
-26.11
-28.97
-32.21
-35.26
-37.34
-37.62
-35.63
-31.37
-25.34
-18.31
-11.07
-4.23
1.86
7.04
11.22
14.32
16.30
17.23
17.34
17.02
16.70
16.70
17.04
17.52
17.75
17.44
16.54
15.35
14.45
14.48
15.91
18.80
22.78
27.11
30.98
33.83
35.54
36.41
37.02
37.90
39.32
41.24
43.35
45.19
46.10
45.37
42.30
36.49
28.10
17.99
7.53
-1.93
-9.59
-15.57
-20.71
-26.02
-31.95
-38.08
-43.16
-45.78
-45.04
-41.01
-34.65
-27.40
-20.57
-14.97
-10.83
-7.99
-6.15
-5.10
-4.72
-4.94
-5.64
-6.74
-8.12
-9.68
-11.31
-12.86
-14.15
-14.99
-15.18
-14.59
-13.12
-10.77
-7.69
-4.28
-1.14
1.09
1.96
1.44
-0.11
-2.05
-3.75
-4.83
-5.21
-5.12
-4.89
-4.89
-5.31
-6.16
-7.30
-8.52
-9.72
-10.91
-12.38
-14.49
-17.52
-21.46
-25.91
-30.09
-33.16
-34.47
-33.76
-31.26
-27.44
-22.81
-17.76
-12.49
-7.15
-1.91
2.96
7.20
10.56
12.85
13.74
12.84
9.78
4.66
-1.74
-7.99
-12.51
-14.29
-13.38
-10.92
-8.51
-7.42
-7.97
-9.53
-11.01
-11.60
-11.18
-10.22
-9.43
-9.29
-9.80
-10.68
-11.59
-12.33
-13.02
-13.95
-15.37
-17.30
-19.54
-21.72
-23.45
-24.49
-24.84
-24.74
-24.64
-25.00
-26.16
-28.10
-30.42
-32.38
-33.13
-31.98
-28.70
-23.52
-17.05
-10.08
-3.29
2.90
8.29
12.93
16.89
20.20
22.84
24.75
25.85
26.14
25.68
24.62
23.20
21.64
20.15
18.85
17.81
17.08
16.66
16.50
16.49
16.46
16.26
15.79
15.08
14.22
13.33
12.46
11.49
10.24
8.52
6.27
3.63
0.89
-1.59
-3.65
-5.33
-6.91
-8.78
-11.23
-14.32
-17.80
-21.16
-23.76
-25.03
-24.57
-22.24
-18.19
-12.79
-6.61
-0.30
5.52
10.37
13.97
16.31
17.53
17.91
17.78
17.42
17.09
16.93
17.03
17.40
17.96
18.57
19.05
19.23
19.00
18.32
17.27
16.00
14.64
13.30
11.95
10.46
8.65
6.40
3.77
0.97
-1.65
-3.80
-5.36
-6.45
-7.45
-8.77
-10.78
-13.58
-16.98
-20.48
-23.40
-24.99
-24.69
-22.25
-17.88
-12.17
-5.91
0.11
5.40
9.73
13.14
15.72
17.49
18.46
18.58
17.96
16.82
15.52
14.43
13.78
13.64
13.93
14.46
15.07
15.64
16.11
16.41
16.45
16.13
15.40
14.28
12.91
11.43
9.96
8.50
6.95
5.22
3.21
0.98
-1.39
-3.77
-6.06
-8.19
-10.17
-12.07
-14.09
-16.44
-19.22
-22.38
-25.52
-28.02
-29.16
-28.45
-25.73
-21.35
-15.98
-10.39
-5.21
-0.79
2.79
5.58
7.64
8.96
9.53
9.40
8.72
7.72
6.69
5.82
5.20
4.82
4.66
4.71
4.98
5.49
6.19
6.97
7.64
7.98
7.82
7.03
5.57
3.46
0.84
-2.05
-4.92
-7.44
-9.36
-10.59
-11.19
-11.42
-11.59
-11.99
-12.81
-14.08
-15.62
-17.14
-18.17
-18.22
-16.86
-13.91
-9.48
-4.09
1.58
6.82
11.14
14.33
16.47
17.75
18.39
18.53
18.23
17.51
16.43
15.09
13.66
12.31
11.16
10.27
9.60
9.08
8.65
8.28
7.93
7.55
6.99
6.04
4.56
2.58
0.34
-1.80
-3.52
-4.70
-5.50
-6.25
-7.23
-8.60
-10.29
-12.10
-13.84
-15.41
-16.82
-18.20
-19.68
-21.36
-23.29
-25.35
-27.23
-28.45
-28.47
-26.84
-23.41
-18.37
-12.28
-5.85
0.23
5.48
9.72
12.96
15.34
16.97
17.97
18.39
18.30
17.79
17.01
16.13
15.32
14.68
14.28
14.09
14.05
14.04
13.94
13.68
13.29
12.85
12.45
12.07
11.58
10.73
9.39
7.58
5.61
3.89
2.76
2.27
2.20
2.15
1.73
0.79
-0.64
-2.35
-4.15
-5.88
-7.48
-8.96
-10.36
-11.75
-13.27
-15.10
-17.40
-20.24
-23.46
-26.62
-29.08
-30.09
-29.10
-25.93
-20.88
-14.68
-8.22
-2.30
2.63
6.48
9.47
11.88
13.89
15.52
16.68
17.31
17.43
17.15
16.67
16.16
15.73
15.38
15.07
14.74
14.40
14.12
13.99
14.03
14.18
14.32
14.26
13.91
13.33
12.65
12.01
11.47
10.92
10.16
8.96
7.27
5.20
3.01
0.96
-0.83
-2.41
-3.95
-5.58
-7.33
-9.09
-10.73
-12.14
-13.32
-14.37
-15.44
-16.68
-18.17
-19.94
-21.94
-24.01
-25.88
-27.10
-27.22
-25.92
-23.12
-19.06
-14.22
-9.20
-4.49
-0.42
2.88
5.44
7.30
8.50
9.06
9.00
8.45
7.61
6.72
6.04
5.74
5.88
6.41
7.16
7.91
8.45
8.61
8.35
7.71
6.81
5.76
4.61
3.32
1.86
0.22
-1.53
-3.18
-4.55
-5.51
-6.09
-6.43
-6.74
-7.19
-7.88
-8.83
-10.06
-11.65
-13.64
-16.03
-18.62
-21.01
-22.65
-22.97
-21.64
-18.64
-14.34
-9.38
-4.44
-0.04
3.62
6.55
8.87
10.63
11.75
12.13
11.75
10.80
9.65
8.73
8.34
8.55
9.22
10.09
10.95
11.67
12.21
12.56
12.70
12.56
12.08
11.25
10.11
8.76
7.30
5.83
4.40
2.97
1.46
-0.23
-2.16
-4.30
-6.54
-8.72
-10.69
-12.40
-13.87
-15.25
-16.73
-18.49
-20.63
-23.07
-25.49
-27.43
-28.33
-27.75
-25.55
-21.87
-17.19
-12.09
-7.10
-2.57
1.33
4.55
7.05
8.82
9.87
10.27
10.20
9.91
9.62
9.47
9.54
9.80
10.23
10.78
11.45
12.18
12.87
13.41
13.66
13.53
12.99
12.09
10.89
9.44
7.83
6.14
4.48
2.98
1.73
0.76
-0.07
-0.94
-2.07
-3.50
-5.17
-6.88
-8.44
-9.84
-11.19
-12.71
-14.55
-16.76
-19.25
-21.90
-24.57
-27.08
-29.20
-30.52
-30.62
-29.12
-25.96
-21.42
-16.10
-10.71
-5.87
-1.93
1.11
3.53
5.64
7.62
9.41
10.81
11.58
11.73
11.53
11.42
11.74
12.52
13.50
14.29
14.60
14.47
14.18
14.02
14.09
14.22
14.13
13.58
12.57
11.28
10.00
8.90
7.99
7.12
6.12
4.92
3.60
2.26
1.00
-0.19
-1.37
-2.69
-4.17
-5.77
-7.37
-8.86
-10.23
-11.55
-12.96
-14.58
-16.48
-18.66
-21.06
-23.56
-25.92
-27.76
-28.61
-28.08
-25.99
-22.50
-18.11
-13.43
-8.97
-4.99
-1.53
1.51
4.17
6.39
8.08
9.16
9.68
9.83
9.85
9.96
10.28
10.85
11.65
12.59
13.58
14.50
15.24
15.68
15.83
15.77
15.56
15.26
14.82
14.14
13.14
11.86
10.40
8.96
7.69
6.62
5.73
4.88
3.99
2.98
1.86
0.66
-0.60
-1.88
-3.15
-4.38
-5.55
-6.68
-7.83
-9.08
-10.52
-12.23
-14.27
-16.63
-19.31
-22.20
-25.09
-27.65
-29.40
-29.90
-28.77
-25.95
-21.67
-16.43
-10.87
-5.57
-0.94
2.82
5.74
7.94
9.60
10.88
11.89
12.70
13.31
13.73
14.01
14.27
14.64
15.23
16.02
16.91
17.70
18.23
18.45
18.45
18.37
18.26
18.07
17.64
16.81
15.53
13.93
12.20
10.56
9.11
7.79
6.51
5.16
3.71
2.19
0.69
-0.75
-2.11
-3.45
-4.84
-6.33
-7.98
-9.80
-11.84
-14.09
-16.59
-19.30
-22.13
-24.83
-27.01
-28.17
-27.86
-25.84
-22.20
-17.31
-11.77
-6.19
-1.04
3.43
7.10
9.96
11.99
13.21
13.70
13.60
13.13
12.53
11.95
11.48
11.18
11.07
11.21
11.61
12.23
12.95
13.60
14.01
14.08
13.83
13.32
12.67
11.93
11.14
10.27
9.35
8.38
7.43
6.51
5.62
4.71
3.69
2.52
1.16
-0.36
-1.98
-3.63
-5.28
-6.88
-8.43
-9.93
-11.41
-12.93
-14.59
-16.51
-18.75
-21.35
-24.20
-27.08
-29.58
-31.21
-31.45
-29.94
-26.61
-21.72
-15.85
-9.69
-3.88
1.14
5.16
8.19
10.34
11.75
12.56
12.88
12.84
12.56
12.20
11.94
11.93
12.21
12.75
13.41
14.03
14.49
14.74
14.87
14.91
14.88
14.72
14.35
13.69
12.74
11.59
10.32
8.98
7.58
6.09
4.51
2.92
1.47
0.29
-0.53
-1.05
-1.40
-1.77
-2.33
-3.15
-4.21
-5.42
-6.69
-7.94
-9.16
-10.41
-11.82
-13.52
-15.65
-18.21
-21.06
-23.83
-26.04
-27.16
-26.84
-24.94
-21.61
-17.24
-12.32
-7.38
-2.89
0.85
3.72
5.79
7.26
8.37
9.28
10.01
10.48
10.61
10.46
10.22
10.16
10.50
11.27
12.39
13.61
14.74
15.60
16.16
16.41
16.38
16.10
15.58
14.85
13.90
12.75
11.41
9.96
8.49
7.09
5.84
4.73
3.68
2.61
1.49
0.28
-1.02
-2.46
-4.10
-5.97
-8.06
-10.26
-12.42
-14.42
-16.21
-17.84
-19.37
-20.95
-22.61
-24.37
-26.10
-27.59
-28.51
-28.54
-27.41
-25.01
-21.44
-16.95
-11.92
-6.75
-1.81
2.63
6.36
9.29
11.41
12.77
13.45
13.55
13.22
12.65
12.11
11.84
11.95
12.44
13.13
13.83
14.39
14.81
15.11
15.34
15.46
15.37
14.97
14.23
13.16
11.83
10.33
8.71
7.06
5.52
4.23
3.29
2.67
2.15
1.41
0.22
-1.46
-3.43
-5.34
-6.87
-7.94
-8.69
-9.46
-10.59
-12.26
-14.45
-17.00
-19.69
-22.29
-24.55
-26.13
-26.61
-25.65
-23.05
-18.99
-13.97
-8.65
-3.65
0.62
4.03
6.63
8.53
9.80
10.44
10.51
10.14
9.59
9.15
9.10
9.52
10.40
11.57
12.84
14.05
15.11
15.95
16.54
16.87
16.92
16.73
16.33
15.78
15.07
14.15
12.95
11.46
9.73
7.85
5.94
4.03
2.12
0.18
-1.83
-3.87
-5.87
-7.71
-9.28
-10.56
-11.61
-12.55
-13.53
-14.66
-16.02
-17.57
-19.29
-21.16
-23.14
-25.15
-26.93
-28.06
-28.01
-26.42
-23.24
-18.83
-13.84
-8.96
-4.65
-1.08
1.88
4.40
6.57
8.38
9.72
10.51
10.79
10.65
10.30
9.99
9.89
10.16
10.83
11.82
13.01
14.21
15.31
16.19
16.74
16.86
16.50
15.69
14.59
13.42
12.40
11.53
10.72
9.75
8.47
6.88
5.13
3.42
1.93
0.64
-0.54
-1.81
-3.28
-5.01
-6.91
-8.86
-10.75
-12.52
-14.15
-15.70
-17.23
-18.78
-20.42
-22.23
-24.26
-26.45
-28.60
-30.30
-31.00
-30.18
-27.54
-23.13
-17.40
-11.03
-4.79
0.67
4.98
8.08
10.13
11.44
12.28
12.83
13.14
13.22
13.08
12.84
12.71
12.87
13.44
14.36
15.45
16.44
17.13
17.43
17.40
17.14
16.70
16.12
15.32
14.26
12.95
11.47
9.97
8.54
7.24
6.03
4.82
3.51
2.04
0.36
-1.49
-3.41
-5.25
-6.86
-8.12
-9.09
-9.94
-10.90
-12.18
-13.89
-16.05
-18.58
-21.32
-24.02
-26.31
-27.76
-27.94
-26.58
-23.68
-19.53
-14.58
-9.35
-4.24
0.43
4.45
7.64
9.90
11.17
11.53
11.22
10.54
9.87
9.50
9.62
10.21
11.13
12.14
12.97
13.51
13.77
13.86
13.91
13.99
14.05
13.97
13.60
12.87
11.80
10.45
8.96
7.44
5.99
4.69
3.56
2.58
1.68
0.76
-0.30
-1.57
-3.10
-4.84
-6.70
-8.57
-10.31
-11.86
-13.28
-14.76
-16.60
-19.10
-22.42
-26.39
-30.49
-33.95
-35.95
-35.90
-33.57
-29.24
-23.52
-17.17
-10.91
-5.25
-0.42
3.54
6.76
9.35
11.40
12.91
13.86
14.24
14.18
13.84
13.46
13.18
13.08
13.17
13.40
13.71
14.08
14.45
14.72
14.75
14.39
13.56
12.27
10.66
8.94
7.26
5.69
4.23
2.79
1.27
-0.40
-2.17
-3.95
-5.64
-7.12
-8.43
-9.67
-11.01
-12.68
-14.89
-17.69
-20.90
-24.10
-26.66
-27.94
-27.44
-25.04
-20.96
-15.76
-10.01
-4.26
1.10
5.83
9.76
12.77
14.82
16.00
16.50
16.60
16.48
16.28
16.03
15.74
15.50
15.38
15.47
15.72
15.99
16.07
15.80
15.14
14.14
12.89
11.43
9.71
7.66
5.27
2.65
-0.01
-2.49
-4.67
-6.57
-8.29
-10.00
-11.89
-14.10
-16.74
-19.77
-23.03
-26.18
-28.73
-30.19
-30.13
-28.38
-25.03
-20.43
-15.08
-9.46
-4.00
1.03
5.43
9.11
11.98
14.02
15.24
15.76
15.79
15.57
15.30
15.13
15.08
15.15
15.33
15.58
15.88
16.19
16.46
16.64
16.71
16.66
16.46
16.04
15.32
14.27
12.92
11.41
9.93
8.63
7.48
6.31
4.85
2.89
0.38
-2.47
-5.30
-7.76
-9.68
-11.10
-12.33
-13.75
-15.72
-18.40
-21.81
-25.75
-29.82
-33.43
-35.88
-36.50
-34.87
-30.96
-25.22
-18.45
-11.57
-5.28
0.03
4.37
7.91
10.83
13.13
14.74
15.52
15.55
15.14
14.68
14.56
14.94
15.69
16.54
17.23
17.65
17.87
18.02
18.21
18.38
18.39
18.09
17.36
16.20
14.68
12.86
10.86
8.78
6.72
4.82
3.13
1.68
0.36
-0.97
-2.44
-4.07
-5.76
-7.36
-8.74
-9.92
-11.11
-12.57
-14.58
-17.28
-20.59
-24.17
-27.54
-30.06
-31.10
-30.18
-27.12
-22.15
-15.87
-9.11
-2.64
2.99
7.55
11.03
13.53
15.10
15.80
15.74
15.11
14.25
13.46
13.02
13.02
13.42
14.06
14.82
15.57
16.27
16.91
17.48
17.94
18.18
18.04
17.39
16.17
14.42
12.29
10.01
7.76
5.69
3.83
2.14
0.53
-1.06
-2.69
-4.35
-6.00
-7.56
-8.94
-10.07
-10.99
-11.92
-13.20
-15.20
-18.18
-22.06
-26.42
-30.53
-33.61
-34.96
-34.22
-31.35
-26.65
-20.62
-13.90
-7.12
-0.85
4.50
8.74
11.87
14.05
15.49
16.41
16.97
17.27
17.42
17.49
17.55
17.64
17.76
17.96
18.26
18.72
19.30
19.92
20.45
20.77
20.81
20.54
19.96
19.05
17.78
16.13
14.16
11.99
9.81
7.78
5.96
4.33
2.80
1.28
-0.27
-1.86
-3.52
-5.24
-7.01
-8.78
-10.50
-12.11
-13.67
-15.38
-17.51
-20.32
-23.83
-27.84
-31.81
-35.04
-36.84
-36.70
-34.41
-30.15
-24.37
-17.74
-10.91
-4.47
1.22
5.99
9.80
12.69
14.75
16.06
16.76
17.01
17.00
16.91
16.86
16.91
17.04
17.16
17.19
17.07
16.83
16.56
16.36
16.27
16.22
16.04
15.54
14.63
13.35
11.88
10.41
9.09
7.91
6.78
5.64
4.47
3.35
2.40
1.65
1.04
0.39
-0.50
-1.76
-3.34
-5.10
-6.82
-8.34
-9.68
-10.98
-12.48
-14.44
-17.06
-20.37
-24.21
-28.19
-31.73
-34.13
-34.77
-33.33
-29.85
-24.79
-18.84
-12.70
-6.93
-1.76
2.72
6.56
9.80
12.37
14.16
15.08
15.18
14.64
13.79
13.04
12.70
12.92
13.61
14.50
15.32
15.87
16.12
16.15
16.06
15.88
15.56
14.98
14.09
12.91
11.58
10.29
9.18
8.31
7.61
6.94
6.16
5.17
3.97
2.59
1.07
-0.57
-2.40
-4.46
-6.77
-9.24
-11.72
-14.10
-16.37
-18.66
-21.16
-24.04
-27.31
-30.69
-33.70
-35.69
-36.05
-34.37
-30.56
-24.95
-18.17
-10.97
-4.11
1.90
6.80
10.53
13.16
14.75
15.41
15.26
14.53
13.57
12.74
12.32
12.41
12.97
13.80
14.74
15.66
16.58
17.47
18.33
19.04
19.45
19.43
18.88
17.81
16.31
14.52
12.57
10.58
8.64
6.79
5.02
3.31
1.62
-0.13
-1.97
-3.94
-6.01
-8.06
-9.97
-11.70
-13.27
-14.89
-16.81
-19.27
-22.41
-26.18
-30.38
-34.61
-38.34
-40.94
-41.80
-40.51
-36.96
-31.44
-24.61
-17.23
-10.07
-3.65
1.81
6.27
9.78
12.40
14.16
15.09
15.32
15.07
14.62
14.26
14.16
14.42
14.97
15.73
16.59
17.44
18.21
18.84
19.29
19.55
19.61
19.51
19.17
18.50
17.38
15.72
13.62
11.30
9.10
7.27
5.86
4.69
3.43
1.77
-0.43
-3.07
-5.88
-8.60
-11.03
-13.14
-15.01
-16.82
-18.74
-20.97
-23.67
-26.93
-30.66
-34.52
-37.94
-40.23
-40.77
-39.18
-35.47
-30.02
-23.44
-16.44
-9.60
-3.38
1.99
6.37
9.76
12.17
13.73
14.63
15.09
15.37
15.63
16.00
16.55
17.31
18.32
19.56
20.93
22.28
23.38
24.06
24.24
23.92
23.17
22.05
20.55
18.65
16.36
13.79
11.11
8.53
6.22
4.23
2.48
0.82
-0.91
-2.81
-4.85
-6.93
-8.90
-10.66
-12.20
-13.59
-14.98
-16.52
-18.32
-20.45
-22.93
-25.78
-28.94
-32.20
-35.14
-37.16
-37.54
-35.76
-31.70
-25.70
-18.52
-11.10
-4.21
1.64
6.28
9.70
11.94
13.04
13.14
12.48
11.50
10.61
10.14
10.18
10.63
11.29
12.07
12.94
13.95
15.12
16.34
17.43
18.21
18.51
18.29
17.52
16.24
14.56
12.64
10.72
9.01
7.60
6.37
5.10
3.48
1.33
-1.30
-4.15
-6.90
-9.32
-11.33
-13.11
-14.91
-17.06
-19.77
-23.16
-27.11
-31.30
-35.14
-37.86
-38.72
-37.20
-33.22
-27.18
-19.85
-12.15
-4.86
1.50
6.74
10.87
14.02
16.25
17.63
18.18
18.02
17.37
16.52
15.80
15.46
15.60
16.16
16.97
17.83
18.54
19.00
19.14
18.99
18.65
18.16
17.57
16.81
15.76
14.36
12.65
10.84
9.25
8.09
7.39
6.90
6.25
5.12
3.35
1.03
-1.62
-4.38
-7.09
-9.68
-12.12
-14.45
-16.76
-19.23
-22.10
-25.58
-29.66
-33.98
-37.87
-40.50
-41.08
-39.16
-34.70
-28.12
-20.19
-11.87
-4.06
2.57
7.74
11.50
14.16
16.06
17.42
18.29
18.70
18.72
18.58
18.60
19.04
20.02
21.46
23.16
24.90
26.57
28.10
29.38
30.33
30.78
30.69
30.11
29.20
28.16
27.07
25.91
24.52
22.77
20.64
18.29
16.05
14.31
13.39
13.47
14.43
15.84
16.98
17.01
15.27
11.68
6.87
2.14
-1.08
-1.84
-0.15
2.97
5.90
7.26
6.50
4.20
1.70
0.44
1.25
4.05
8.04
12.17
15.75
18.74
21.62
25.10
29.54
34.62
39.25
41.75
40.29
33.24
19.72
-0.15
-25.02
-52.49
-79.51
-103.17
-121.43
-133.58
-140.17
-142.27
-140.62
-134.84
-123.21
-103.22
-72.58
-30.28
22.64
83.12
146.51
207.49
261.01
303.14
331.57
346.03
348.05
340.53
326.79
309.75
291.29
272.10
252.06
230.79
208.06
183.89
158.37
131.42
102.88
72.88
42.30
12.97
-12.95
-33.78
-49.12
-59.98
-67.98
-74.26
-78.69
-79.89
-76.22
-66.99
-53.23
-37.56
-23.25
-13.08
-8.40
-8.94
-13.12
-18.73
-23.74
-26.90
-28.22
-28.89
-30.76
-35.53
-43.83
-54.96
-67.12
-78.30
-87.01
-92.81
-96.12
-97.73
-98.38
-98.44
-97.99
-96.90
-95.02
-92.13
-88.06
-82.60
-75.68
-67.39
-57.96
-47.61
-36.25
-23.30
-7.67
11.82
35.82
63.87
94.14
123.66
149.03
167.17
175.86
174.01
161.60
139.55
109.66
74.44
36.80
-0.54
-35.62
-67.75
-97.62
-127.00
-158.31
-194.29
-237.58
-289.93
-350.91
-416.72
-480.00
-531.16
-561.26
-565.09
-543.11
-501.08
-447.60
-390.72
-335.56
-283.68
-234.27
-185.94
-137.91
-90.03
-41.89
7.77
60.69
117.72
177.27
234.90
284.40
320.09
339.23
342.99
335.63
322.11
305.82
287.31
264.86
236.32
200.90
160.05
117.07
75.77
39.23
9.11
-14.29
-31.58
-43.88
-52.45
-58.48
-63.03
-66.86
-70.48
-74.21
-78.26
-82.66
-87.26
-91.52
-94.57
-95.42
-93.37
-88.42
-81.54
-74.54
-69.63
-68.73
-72.91
-82.18
-95.60
-111.72
-129.23
-147.37
-166.16
-186.04
-207.38
-229.67
-251.17
-268.83
-278.99
-278.31
-264.90
-239.19
-203.96
-163.84
-124.29
-90.39
-65.83
-52.19
-48.53
-51.46
-56.14
-57.92
-54.50
-47.08
-39.79
-37.51
-42.96
-54.69
-67.40
-74.47
-71.07
-56.19
-32.38
-3.50
27.99
62.27
101.19
145.75
193.69
239.01
273.69
291.05
288.62
269.22
239.77
208.49
181.93
163.27
152.41
147.42
146.30
148.21
153.51
162.96
176.59
193.00
209.47
222.76
230.27
230.91
225.43
215.60
203.07
188.38
170.82
149.44
124.39
97.75
73.08
54.02
42.57
38.17
38.07
38.65
36.90
31.38
22.41
11.55
0.83
-8.00
-13.81
-16.35
-16.26
-14.90
-13.96
-14.99
-18.87
-25.34
-32.91
-39.32
-42.42
-41.20
-36.23
-29.47
-23.30
-19.58
-19.19
-22.31
-28.87
-38.89
-51.95
-66.28
-78.27
-83.21
-77.20
-59.28
-32.40
-2.44
24.21
43.15
53.12
55.51
52.84
47.41
40.75
34.09
29.00
27.62
32.21
44.28
63.90
89.49
118.19
146.59
171.63
191.25
204.66
212.29
215.18
214.46
210.67
203.77
193.48
179.94
164.20
148.06
133.44
121.52
112.06
103.33
92.77
77.88
56.93
29.40
-4.26
-43.22
-86.85
-134.64
-185.69
-237.79
-287.00
-328.21
-356.60
-369.50
-367.45
-354.06
-334.48
-313.41
-293.60
-275.59
-258.81
-242.91
-228.43
-216.11
-205.55
-194.25
-177.95
-152.26
-114.82
-66.59
-11.68
44.02
94.56
135.06
162.02
173.40
168.79
149.77
120.15
85.43
51.52
23.28
3.37
-7.69
-10.81
-7.53
0.55
11.67
23.85
34.91
42.91
46.72
46.19
41.95
34.89
25.70
14.91
3.03
-9.21
-20.70
-30.16
-36.40
-38.69
-36.99
-32.01
-25.07
-17.82
-11.81
-8.05
-6.73
-7.25
-8.42
-8.92
-7.74
-4.37
1.20
8.74
18.02
29.04
41.80
56.08
71.06
85.27
97.04
105.25
109.95
112.53
115.12
119.52
126.03
133.08
137.76
137.18
129.80
116.17
98.50
79.43
60.64
42.37
23.86
4.74
-13.69
-27.98
-33.48
-26.27
-5.21
26.89
63.62
96.84
119.07
125.55
114.96
89.03
51.46
6.77
-40.37
-85.33
-123.74
-151.87
-167.26
-169.29
-159.28
-140.10
-115.16
-87.47
-59.05
-31.12
-4.70
18.52
35.67
43.18
37.95
18.86
-11.92
-48.81
-84.08
-110.16
-122.05
-118.71
-102.68
-78.37
-49.70
-18.70
14.54
50.49
88.50
125.85
158.29
182.08
196.20
203.38
209.22
219.42
236.73
259.20
280.87
294.52
294.97
281.11
255.76
223.56
188.49
152.33
115.10
76.61
37.96
1.89
-28.28
-50.34
-64.39
-72.52
-77.57
-81.50
-84.36
-84.60
-80.14
-69.64
-53.35
-33.22
-12.36
5.80
18.58
24.84
25.40
22.96
21.11
22.93
29.68
40.18
51.32
59.34
61.44
56.65
45.80
30.60
12.60
-7.32
-28.84
-51.60
-74.59
-96.01
-113.86
-126.48
-133.43
-135.55
-134.60
-132.53
-130.69
-129.49
-128.42
-126.55
-123.13
-117.90
-111.23
-103.88
-96.76
-90.63
-85.95
-82.91
-81.46
-81.39
-82.29
-83.58
-84.54
-84.46
-82.97
-80.17
-76.64
-73.17
-70.32
-68.18
-66.34
-64.12
-61.00
-56.87
-52.11
-47.43
-43.58
-41.01
-39.75
-39.34
-38.98
-37.89
-35.50
-31.77
-27.18
-22.65
-19.25
-17.90
-19.09
-22.61
-27.36
-31.42
-32.32
-27.77
-16.39
1.55
24.14
48.23
70.46
88.12
99.86
105.64
106.38
103.44
98.25
92.17
86.44
82.15
80.08
80.44
82.84
86.33
89.88
92.76
94.93
97.18
100.89
107.69
118.71
134.00
152.10
170.10
184.35
191.55
189.94
179.92
163.90
145.25
126.98
110.77
96.74
84.08
72.00
60.46
50.08
41.59
34.87
28.49
19.96
6.57
-13.54
-40.54
-72.92
-108.20
-143.97
-178.87
-213.00
-247.56
-284.22
-324.55
-369.91
-421.20
-478.29
-538.94
-598.15
-648.35
-681.37
-691.15
-676.20
-640.25
-590.66
-535.59
-481.25
-430.69
-384.49
-342.16
-303.37
-268.06
-235.77
-205.08
-173.85
-140.19
-103.61
-65.52
-28.60
4.23
31.43
53.64
73.94
96.93
127.09
166.33
211.98
256.48
289.03
299.69
283.61
243.82
190.84
139.27
102.96
90.57
103.18
134.67
173.93
207.88
224.55
215.60
178.19
115.73
37.14
-45.23
-118.90
-174.21
-206.05
-214.20
-202.19
-175.57
-140.30
-101.53
-62.76
-25.62
9.86
44.35
78.09
110.32
139.02
161.74
176.58
183.16
182.79
177.69
170.35
162.61
155.52
149.61
145.15
142.36
141.16
141.06
141.14
140.42
138.22
134.43
129.39
123.71
117.83
111.92
105.86
99.31
91.98
83.72
74.55
64.80
54.97
45.72
37.69
31.34
26.82
23.97
22.43
21.76
21.63
21.86
22.43
23.25
24.16
24.81
24.86
24.11
22.64
20.86
19.25
18.26
18.03
18.45
19.22
20.09
20.94
21.85
22.93
24.24
25.59
26.63
26.94
26.14
24.10
20.95
17.16
13.34
10.11
7.80
6.27
4.81
2.29
-2.53
-10.58
-22.06
-36.18
-51.26
-65.12
-75.74
-81.77
-82.93
-79.93
-74.08
-66.77
-59.10
-51.78
-45.18
-39.57
-35.20
-32.21
-30.41
-29.19
-27.57
-24.64
-19.92
-13.62
-6.60
0.02
5.26
8.65
10.35
10.90
10.90
10.72
10.46
9.96
9.05
7.69
6.04
4.39
3.06
2.19
1.75
1.45
0.89
-0.35
-2.55
-5.75
-9.78
-14.28
-18.85
-23.07
-26.60
-29.15
-30.46
-30.33
-28.65
-25.46
-20.99
-15.71
-10.19
-5.00
-0.53
3.07
5.87
7.99
9.56
10.60
11.08
11.07
10.75
10.39
10.21
10.31
10.64
11.08
11.53
11.98
12.45
12.96
13.44
13.79
13.89
13.74
13.40
12.98
12.53
11.98
11.19
9.98
8.29
6.17
3.77
1.36
-0.83
-2.65
-4.12
-5.37
-6.62
-8.10
-9.99
-12.34
-15.07
-17.95
-20.62
-22.67
-23.72
-23.43
-21.68
-18.49
-14.12
-8.95
-3.41
2.09
7.26
11.91
15.92
19.15
21.43
22.61
22.67
21.77
20.26
18.66
17.43
16.86
16.90
17.27
17.58
17.57
17.21
16.69
16.27
16.08
15.99
15.75
15.01
13.62
11.60
9.15
6.54
4.04
1.82
-0.05
-1.55
-2.73
-3.75
-4.76
-5.92
-7.35
-9.05
-10.99
-13.15
-15.51
-18.14
-21.09
-24.39
-28.01
-31.76
-35.35
-38.33
-40.18
-40.39
-38.64
-34.90
-29.49
-23.01
-16.19
-9.69
-3.95
0.76
4.39
6.96
8.57
9.43
9.79
9.95
10.20
10.69
11.52
12.60
13.87
15.19
16.49
17.67
18.67
19.41
19.83
19.90
19.61
18.98
18.00
16.70
15.09
13.16
10.97
8.58
6.07
3.55
1.12
-1.11
-3.10
-4.87
-6.48
-8.07
-9.80
-11.83
-14.32
-17.33
-20.74
-24.20
-27.11
-28.81
-28.71
-26.53
-22.39
-16.76
-10.33
-3.82
2.28
7.59
11.98
15.36
17.71
19.03
19.42
19.11
18.37
17.58
17.01
16.84
17.09
17.67
18.42
19.15
19.71
19.99
19.93
19.51
18.79
17.85
16.76
15.60
14.34
12.92
11.22
9.17
6.77
4.11
1.37
-1.28
-3.78
-6.17
-8.63
-11.31
-14.34
-17.74
-21.46
-25.39
-29.37
-33.10
-36.12
-37.86
-37.82
-35.75
-31.78
-26.43
-20.34
-14.07
-7.94
-2.05
3.56
8.75
13.22
16.62
18.73
19.64
19.68
19.37
19.14
19.22
19.61
20.14
20.67
21.11
21.48
21.83
22.13
22.28
22.09
21.38
20.07
18.21
16.00
13.69
11.48
9.49
7.73
6.09
4.44
2.64
0.61
-1.66
-4.15
-6.81
-9.63
-12.65
-15.93
-19.55
-23.51
-27.64
-31.54
-34.64
-36.30
-36.07
-33.79
-29.68
-24.25
-18.12
-11.83
-5.76
-0.14
4.91
9.22
12.60
14.90
16.09
16.33
15.98
15.48
15.25
15.47
16.12
16.94
17.64
17.99
17.97
17.71
17.49
17.47
17.69
17.97
17.98
17.39
15.99
13.75
10.85
7.61
4.33
1.25
-1.47
-3.87
-6.13
-8.51
-11.35
-14.92
-19.23
-24.02
-28.74
-32.75
-35.67
-37.59
-39.16
-41.39
-45.18
-50.85
-57.91
-65.16
-71.15
-74.74
-75.41
-73.31
-68.99
-63.11
-56.23
-48.83
-41.17
-33.15
-24.07
-12.73
2.00
20.52
41.82
63.62
83.12
98.13
107.98
113.49
116.32
117.92
118.76
118.47
116.35
112.20
106.57
100.55
95.11
90.58
86.47
81.81
75.85
68.49
60.52
53.23
47.64
43.97
41.38
38.37
33.42
25.79
15.85
4.97
-5.02
-12.47
-16.52
-17.30
-15.80
-13.54
-12.04
-12.47
-15.31
-20.26
-26.35
-32.25
-36.67
-38.79
-38.55
-36.69
-34.40
-32.91
-32.86
-34.09
-35.61
-36.18
-34.84
-31.43
-26.63
-21.66
-17.77
-15.73
-15.59
-16.75
-18.27
-19.23
-18.98
-17.22
-13.91
-9.13
-2.99
4.39
12.76
21.73
30.77
39.22
46.51
52.24
56.29
58.73
59.86
60.10
59.91
59.76
60.01
60.81
61.99
63.18
63.87
63.64
62.25
59.72
56.26
52.13
47.49
42.33
36.36
29.18
20.42
9.93
-2.04
-14.85
-27.56
-39.17
-48.82
-55.95
-60.30
-61.87
-60.90
-57.84
-53.37
-48.45
-44.08
-41.10
-39.93
-40.43
-41.99
-43.81
-45.19
-45.76
-45.49
-44.48
-42.84
-40.55
-37.50
-33.61
-28.95
-23.75
-18.39
-13.27
-8.73
-5.02
-2.24
-0.35
0.79
1.37
1.58
1.53
1.29
0.84
0.18
-0.66
-1.65
-2.80
-4.09
-5.54
-7.13
-8.79
-10.49
-12.30
-14.36
-16.92
-20.14
-24.01
-28.27
-32.39
-35.72
-37.63
-37.62
-35.53
-31.53
-26.11
-19.91
-13.60
-7.66
-2.41
2.05
5.72
8.63
10.75
12.09
12.68
12.67
12.32
11.95
11.84
12.19
13.03
14.26
15.65
17.02
18.17
19.00
19.42
19.41
18.96
18.07
16.80
15.21
13.36
11.29
9.02
6.62
4.14
1.70
-0.64
-2.80
-4.80
-6.64
-8.35
-9.96
-11.55
-13.30
-15.52
-18.51
-22.46
-27.19
-32.13
-36.38
-38.97
-39.15
-36.62
-31.62
-24.82
-17.10
-9.36
-2.25
3.86
8.88
12.87
15.93
18.15
19.55
20.18
20.21
19.93
19.72
19.90
20.62
21.78
23.12
24.31
25.11
25.46
25.40
25.02
24.30
23.10
21.25
18.71
15.60
12.27
9.09
6.33
4.04
2.09
0.25
-1.69
-3.80
-6.02
-8.24
-10.29
-12.04
-13.41
-14.42
-15.22
-16.11
-17.48
-19.70
-23.02
-27.39
-32.40
-37.32
-41.22
-43.21
-42.70
-39.59
-34.28
-27.56
-20.33
-13.41
-7.25
-1.97
2.58
6.68
10.55
14.24
17.64
20.63
23.07
25.03
26.69
28.26
29.84
31.35
32.55
33.21
33.25
32.75
31.94
31.04
30.12
29.11
27.83
26.16
24.05
21.63
19.13
16.83
14.89
13.39
12.31
11.52
10.88
10.23
9.45
8.44
7.19
5.70
4.01
2.15
0.12
-2.08
-4.49
-7.16
-10.13
-13.49
-17.35
-21.77
-26.65
-31.62
-35.97
-38.85
-39.46
-37.39
-32.74
-26.13
-18.44
-10.60
-3.33
2.96
8.15
12.32
15.63
18.28
20.42
22.19
23.64
24.77
25.51
25.78
25.59
25.02
24.28
23.62
23.25
23.26
23.58
24.03
24.35
24.35
23.91
23.07
21.92
20.57
19.12
17.61
16.08
14.55
13.07
11.71
10.48
9.38
8.33
7.24
6.04
4.66
3.08
1.30
-0.66
-2.77
-4.96
-7.15
-9.28
-11.36
-13.52
-16.00
-19.07
-22.89
-27.38
-32.11
-36.43
-39.50
-40.63
-39.38
-35.75
-30.12
-23.15
-15.56
-7.97
-0.85
5.47
10.77
14.93
17.94
19.91
21.10
21.78
22.20
22.50
22.81
23.22
23.86
24.80
26.00
27.27
28.34
28.99
29.11
28.76
28.04
27.05
25.81
24.29
22.49
20.50
18.47
16.54
14.79
13.18
11.61
9.97
8.23
6.38
4.45
2.47
0.44
-1.62
-3.71
-5.81
-7.88
-9.93
-11.96
-13.97
-15.97
-17.97
-20.08
-22.44
-25.23
-28.50
-32.00
-35.18
-37.25
-37.48
-35.40
-31.02
-24.80
-17.47
-9.82
-2.59
3.69
8.69
12.35
14.74
16.16
16.90
17.24
17.37
17.36
17.29
17.25
17.35
17.67
18.22
18.94
19.71
20.46
21.18
21.86
22.45
22.79
22.71
22.07
20.85
19.18
17.29
15.35
13.41
11.45
9.42
7.33
5.31
3.51
2.01
0.74
-0.52
-1.96
-3.71
-5.74
-7.93
-10.21
-12.52
-14.92
-17.42
-20.04
-22.80
-25.78
-29.03
-32.53
-35.95
-38.66
-39.88
-38.98
-35.78
-30.61
-24.20
-17.36
-10.76
-4.77
0.48
4.90
8.46
11.13
12.96
14.10
14.77
15.20
15.57
16.01
16.57
17.28
18.13
19.04
19.92
20.71
21.40
22.04
22.59
22.93
22.81
22.01
20.40
18.09
15.39
12.67
10.25
8.25
6.60
5.11
3.58
1.92
0.12
-1.78
-3.67
-5.49
-7.21
-8.84
-10.48
-12.33
-14.60
-17.54
-21.23
-25.57
-30.15
-34.30
-37.24
-38.29
-37.07
-33.59
-28.28
-21.83
-14.96
-8.26
-2.10
3.32
7.91
11.60
14.33
16.06
16.83
16.77
16.13
15.20
14.35
13.87
14.01
14.83
16.17
17.72
19.05
19.85
19.98
19.54
18.72
17.68
16.43
14.84
12.79
10.28
7.51
4.77
2.34
0.31
-1.43
-3.11
-4.89
-6.84
-8.96
-11.24
-13.80
-16.76
-20.13
-23.63
-26.68
-28.51
-28.48
-26.34
-22.39
-17.27
-11.76
-6.47
-1.74
2.34
5.82
8.71
10.98
12.60
13.61
14.14
14.42
14.63
14.93
15.35
15.90
16.55
17.29
18.13
19.01
19.85
20.50
20.82
20.66
19.93
18.70
17.09
15.30
13.55
11.96
10.48
8.97
7.22
5.11
2.68
0.11
-2.41
-4.72
-6.82
-8.76
-10.68
-12.68
-14.87
-17.39
-20.36
-23.77
-27.44
-30.84
-33.24
-33.90
-32.34
-28.53
-22.95
-16.37
-9.66
-3.45
1.89
6.29
9.83
12.56
14.51
15.65
16.01
15.74
15.11
14.45
14.06
14.10
14.58
15.44
16.59
17.89
19.26
20.55
21.58
22.15
22.13
21.46
20.26
18.71
17.07
15.49
14.02
12.59
11.06
9.32
7.39
5.41
3.60
2.16
1.18
0.61
0.34
0.31
0.46
0.85
1.46
2.20
2.89
3.32
3.29
2.63
1.11
-1.54
-5.64
-11.17
-17.67
-24.08
-28.92
-30.88
-29.29
-24.52
-17.85
-10.91
-5.09
-1.10
1.13
2.07
2.23
1.85
0.93
-0.60
-2.61
-4.74
-6.51
-7.47
-7.44
-6.47
-4.87
-2.95
-0.96
0.99
2.87
4.75
6.60
8.30
9.63
10.36
10.35
9.65
8.53
7.36
6.47
5.98
5.72
5.35
4.48
2.85
0.49
-2.31
-5.10
-7.48
-9.21
-10.34
-11.10
-11.77
-12.52
-13.40
-14.29
-15.07
-15.74
-16.46
-17.48
-19.10
-21.47
-24.52
-27.87
-30.95
-33.06
-33.55
-32.06
-28.59
-23.54
-17.54
-11.28
-5.26
0.18
4.93
8.97
12.27
14.81
16.61
17.72
18.31
18.63
18.93
19.46
20.37
21.69
23.34
25.10
26.69
27.84
28.42
28.43
28.01
27.33
26.54
25.65
24.61
23.31
21.70
19.86
17.97
16.23
14.80
13.67
12.70
11.65
10.29
8.45
6.13
3.42
0.48
-2.47
-5.26
-7.78
-10.03
-12.10
-14.16
-16.38
-18.93
-21.89
-25.24
-28.80
-32.20
-34.94
-36.43
-36.16
-33.84
-29.56
-23.73
-17.04
-10.25
-3.98
1.36
5.66
8.99
11.52
13.44
14.88
15.95
16.71
17.27
17.74
18.23
18.84
19.57
20.32
20.95
21.27
21.18
20.67
19.84
18.82
17.72
16.61
15.46
14.20
12.83
11.42
10.09
8.96
8.03
7.20
6.31
5.22
3.91
2.46
0.99
-0.43
-1.83
-3.32
-4.97
-6.76
-8.56
-10.20
-11.65
-13.03
-14.58
-16.57
-19.16
-22.32
-25.80
-29.21
-32.00
-33.64
-33.66
-31.83
-28.18
-23.06
-17.01
-10.65
-4.46
1.22
6.17
10.26
13.34
15.34
16.25
16.25
15.65
14.81
14.06
13.61
13.51
13.74
14.23
14.89
15.64
16.38
16.97
17.30
17.32
17.03
16.52
15.90
15.27
14.67
14.07
13.41
12.62
11.64
10.45
9.04
7.44
5.70
3.91
2.19
0.62
-0.76
-1.96
-3.06
-4.15
-5.32
-6.63
-8.14
-9.82
-11.69
-13.73
-15.97
-18.46
-21.29
-24.47
-27.79
-30.83
-32.95
-33.56
-32.27
-29.11
-24.49
-19.07
-13.52
-8.32
-3.74
0.14
3.25
5.56
7.01
7.62
7.56
7.15
6.72
6.55
6.82
7.53
8.61
9.97
11.53
13.19
14.85
16.32
17.44
18.10
18.28
18.02
17.44
16.64
15.66
14.55
13.28
11.81
10.12
8.21
6.08
3.81
1.49
-0.77
-2.90
-4.86
-6.60
-8.08
-9.26
-10.13
-10.84
-11.61
-12.74
-14.47
-16.87
-19.89
-23.28
-26.75
-29.95
-32.41
-33.68
-33.35
-31.18
-27.29
-22.13
-16.35
-10.65
-5.46
-0.97
2.85
6.09
8.79
10.82
12.08
12.51
12.24
11.60
10.98
10.74
11.03
11.84
12.97
14.20
15.31
16.20
16.85
17.26
17.42
17.25
16.62
15.44
13.72
11.61
9.37
7.28
5.56
4.31
3.47
2.84
2.18
1.27
-0.08
-1.90
-4.13
-6.60
-9.09
-11.45
-13.57
-15.44
-17.15
-18.84
-20.68
-22.82
-25.35
-28.24
-31.25
-33.95
-35.80
-36.24
-34.94
-31.84
-27.24
-21.67
-15.77
-10.07
-4.96
-0.59
3.02
5.96
8.30
10.10
11.36
12.10
12.42
12.44
12.36
12.37
12.57
12.98
13.57
14.24
14.91
15.52
16.03
16.38
16.49
16.27
15.70
14.80
13.70
12.55
11.48
10.56
9.80
9.14
8.52
7.85
7.06
6.06
4.77
3.21
1.39
-0.53
-2.44
-4.26
-6.04
-7.88
-9.95
-12.34
-15.08
-18.15
-21.52
-25.16
-28.99
-32.78
-36.05
-38.19
-38.56
-36.78
-32.88
-27.35
-20.98
-14.62
-8.87
-4.03
-0.09
3.12
5.76
7.86
9.37
10.27
10.59
10.54
10.39
10.46
10.94
11.87
13.15
14.57
15.92
17.09
18.05
18.84
19.46
19.88
20.00
19.72
19.03
18.03
16.91
15.84
14.87
13.95
12.90
11.55
9.83
7.84
5.78
3.83
2.11
0.54
-1.02
-2.74
-4.68
-6.75
-8.76
-10.59
-12.19
-13.71
-15.39
-17.54
-20.35
-23.87
-27.89
-31.95
-35.44
-37.67
-38.10
-36.46
-32.84
-27.67
-21.57
-15.19
-9.06
-3.52
1.28
5.30
8.56
11.09
12.93
14.10
14.66
14.78
14.66
14.62
14.90
15.66
16.84
18.27
19.70
20.97
21.96
22.67
23.11
23.21
22.88
22.03
20.74
19.19
17.73
16.62
16.01
15.79
15.68
15.32
14.42
12.90
10.93
8.82
6.94
5.54
4.69
4.23
3.89
3.39
2.50
1.18
-0.55
-2.55
-4.70
-6.73
-8.42
-9.64
-10.54
-11.66
-13.81
-17.77
-23.90
-31.80
-40.31
-47.86
-52.86
-54.25
-51.66
-45.38
-36.21
-25.26
-13.77
-3.07
5.49
10.81
12.25
9.93
4.79
-1.62
-7.45
-11.14
-11.78
-9.42
-4.86
0.63
5.82
9.83
12.28
13.17
12.72
11.10
8.42
4.80
0.50
-4.02
-8.12
-11.22
-12.88
-12.95
-11.50
-8.70
-4.81
-0.13
4.99
10.15
14.91
18.91
21.88
23.65
24.08
23.04
20.49
16.47
11.24
5.18
-1.28
-7.68
-13.61
-18.62
-22.18
-23.80
-23.11
-20.10
-15.21
-9.21
-3.00
2.68
7.41
11.08
13.81
15.70
16.83
17.22
16.94
16.21
15.29
14.52
14.08
14.07
14.42
15.00
15.67
16.34
16.95
17.49
17.90
18.14
18.13
17.80
17.10
16.03
14.65
13.07
11.41
9.77
8.19
6.72
5.38
4.18
3.15
2.23
1.34
0.33
-0.89
-2.36
-3.95
-5.54
-7.01
-8.36
-9.73
-11.31
-13.31
-15.82
-18.86
-22.31
-25.93
-29.34
-32.06
-33.56
-33.42
-31.41
-27.64
-22.53
-16.70
-10.87
-5.58
-1.20
2.22
4.78
6.68
8.16
9.37
10.42
11.33
12.15
12.93
13.72
14.61
15.59
16.63
17.61
18.41
18.98
19.37
19.69
20.06
20.45
20.72
20.65
20.10
19.01
17.56
15.94
14.33
12.80
11.28
9.70
8.03
6.30
4.61
3.01
1.51
0.09
-1.33
-2.77
-4.20
-5.64
-7.08
-8.57
-10.14
-11.79
-13.51
-15.29
-17.20
-19.37
-21.93
-24.93
-28.19
-31.29
-33.62
-34.56
-33.70
-30.99
-26.77
-21.61
-16.13
-10.83
-6.01
-1.78
1.83
4.81
7.11
8.74
9.72
10.19
10.36
10.45
10.65
11.07
11.74
12.58
13.51
14.41
15.25
15.98
16.63
17.19
17.63
17.90
17.89
17.55
16.83
15.79
14.54
13.25
12.04
10.98
10.02
9.04
7.91
6.60
5.14
3.68
2.37
1.28
0.37
-0.54
-1.68
-3.21
-5.15
-7.31
-9.42
-11.21
-12.59
-13.69
-14.82
-16.29
-18.28
-20.76
-23.49
-26.18
-28.53
-30.28
-31.19
-30.99
-29.47
-26.60
-22.58
-17.85
-12.95
-8.38
-4.41
-1.13
1.57
3.79
5.64
7.13
8.28
9.11
9.68
10.11
10.52
11.03
11.64
12.36
13.12
13.88
14.61
15.35
16.12
16.88
17.53
17.88
17.78
17.13
15.99
14.52
12.97
11.49
10.12
8.77
7.30
5.61
3.76
1.91
0.30
-0.92
-1.72
-2.31
-2.93
-3.83
-5.09
-6.63
-8.22
-9.67
-10.90
-11.99
-13.08
-14.31
-15.70
-17.22
-18.81
-20.48
-22.30
-24.26
-26.21
-27.74
-28.30
-27.39
-24.77
-20.63
-15.49
-10.08
-5.04
-0.79
2.51
4.95
6.69
7.93
8.82
9.47
9.92
10.24
10.48
10.70
11.01
11.48
12.16
12.96
13.72
14.26
14.44
14.29
13.94
13.56
13.22
12.83
12.18
11.05
9.40
7.38
5.34
3.58
2.28
1.42
0.82
0.27
-0.39
-1.16
-2.00
-2.84
-3.68
-4.56
-5.56
-6.70
-7.95
-9.26
-10.58
-11.92
-13.32
-14.91
-16.81
-19.10
-21.80
-24.71
-27.44
-29.41
-30.07
-29.07
-26.39
-22.43
-17.75
-12.95
-8.43
-4.33
-0.70
2.42
4.93
6.79
8.01
8.78
9.35
9.88
10.38
10.74
10.82
10.61
10.18
9.71
9.35
9.17
9.13
9.17
9.23
9.29
9.33
9.32
9.21
8.95
8.52
7.96
7.32
6.66
6.01
5.36
4.70
4.00
3.30
2.60
1.92
1.20
0.35
-0.71
-2.03
-3.56
-5.23
-6.90
-8.52
-10.09
-11.70
-13.45
-15.44
-17.76
-20.44
-23.43
-26.51
-29.31
-31.36
-32.17
-31.44
-29.11
-25.41
-20.76
-15.68
-10.61
-5.91
-1.84
1.46
3.93
5.61
6.69
7.44
8.12
8.89
9.80
10.80
11.82
12.83
13.80
14.73
15.56
16.23
16.66
16.83
16.76
16.50
16.09
15.50
14.70
13.67
12.50
11.31
10.26
9.45
8.85
8.29
7.60
6.62
5.30
3.69
1.90
-0.01
-1.99
-4.06
-6.17
-8.26
-10.22
-11.98
-13.51
-14.89
-16.21
-17.56
-19.03
-20.64
-22.42
-24.36
-26.31
-27.95
-28.84
-28.52
-26.70
-23.46
-19.15
-14.35
-9.64
-5.39
-1.77
1.28
3.84
5.97
7.65
8.84
9.54
9.86
9.99
10.06
10.16
10.24
10.22
10.05
9.75
9.44
9.28
9.42
9.88
10.60
11.36
11.91
12.01
11.53
10.52
9.18
7.78
6.57
5.62
4.83
3.97
2.83
1.37
-0.30
-1.93
-3.30
-4.36
-5.21
-6.10
-7.25
-8.80
-10.78
-13.16
-15.86
-18.71
-21.43
-23.56
-24.56
-24.03
-21.86
-18.36
-14.14
-9.88
-6.06
-2.87
-0.20
2.12
4.17
5.88
7.10
7.70
7.75
7.43
7.03
6.78
6.78
7.05
7.56
8.27
9.13
10.03
10.82
11.28
11.25
10.76
9.97
9.10
8.27
7.48
6.59
5.44
3.98
2.29
0.56
-1.04
-2.44
-3.67
-4.82
-5.99
-7.25
-8.67
-10.35
-12.36
-14.72
-17.28
-19.68
-21.43
-22.04
-21.15
-18.74
-15.07
-10.68
-6.20
-2.16
1.09
3.45
5.05
6.16
7.05
7.85
8.56
9.11
9.45
9.64
9.86
10.32
11.08
12.01
12.83
13.28
13.24
12.81
12.29
11.96
11.92
12.07
12.11
11.74
10.81
9.36
7.60
5.81
4.17
2.72
1.38
0.04
-1.35
-2.71
-3.96
-4.99
-5.85
-6.64
-7.57
-8.83
-10.57
-12.88
-15.77
-19.10
-22.57
-25.69
-27.90
-28.71
-27.85
-25.38
-21.66
-17.22
-12.62
-8.29
-4.44
-1.10
1.81
4.34
6.50
8.16
9.22
9.59
9.40
8.90
8.47
8.44
8.96
9.97
11.22
12.43
13.36
13.96
14.23
14.25
14.10
13.73
13.10
12.13
10.88
9.45
8.03
6.77
5.74
4.91
4.20
3.50
2.75
1.88
0.88
-0.29
-1.63
-3.11
-4.67
-6.23
-7.80
-9.42
-11.19
-13.20
-15.43
-17.79
-20.10
-22.16
-23.81
-24.87
-25.17
-24.51
-22.74
-19.82
-15.88
-11.27
-6.46
-1.92
2.04
5.33
8.04
10.31
12.16
13.51
14.21
14.20
13.61
12.77
12.04
11.65
11.60
11.70
11.69
11.45
11.00
10.48
10.03
9.64
9.20
8.53
7.55
6.34
5.13
4.17
3.56
3.21
2.85
2.20
1.10
-0.36
-1.97
-3.49
-4.85
-6.13
-7.55
-9.29
-11.40
-13.80
-16.36
-18.87
-21.06
-22.58
-22.98
-21.90
-19.22
-15.21
-10.43
-5.60
-1.27
2.28
5.09
7.30
9.03
10.30
11.01
11.15
10.81
10.22
9.66
9.37
9.44
9.84
10.44
11.07
11.61
11.97
12.15
12.18
12.12
12.00
11.78
11.41
10.81
9.98
8.96
7.87
6.84
5.90
5.03
4.12
3.11
1.99
0.83
-0.27
-1.27
-2.21
-3.21
-4.43
-5.94
-7.78
-9.89
-12.09
-14.10
-15.50
-15.85
-14.68
-11.75
-7.12
-1.17
5.36
11.70
17.20
21.55
24.86
27.57
30.28
33.44
37.17
41.23
45.07
48.18
50.29
51.66
52.97
55.12
58.80
64.30
71.34
79.25
87.23
94.44
99.96
102.65
101.21
94.37
81.42
62.43
38.05
8.82
-25.38
-64.97
-109.43
-155.83
-198.12
-228.23
-238.84
-226.50
-193.69
-148.56
-102.27
-65.44
-44.90
-42.10
-53.51
-72.25
-90.32
-100.67
-98.51
-82.12
-52.88
-14.86
26.06
63.42
91.51
106.70
108.36
98.81
82.41
63.69
45.67
28.93
12.13
-6.37
-26.61
-46.21
-61.13
-67.60
-64.31
-53.29
-39.17
-27.13
-20.60
-20.04
-23.33
-27.30
-29.60
-29.72
-28.79
-28.67
-30.77
-35.49
-42.19
-49.36
-54.69
-55.27
-48.14
-31.39
-5.34
26.84
59.93
88.45
108.76
120.17
124.44
124.17
121.13
115.71
107.60
97.07
85.75
76.16
70.39
68.72
69.26
68.71
63.92
53.33
37.46
18.34
-1.63
-20.77
-38.34
-54.06
-67.36
-76.97
-81.25
-79.11
-70.89
-58.63
-45.40
-34.13
-26.49
-22.59
-21.31
-21.14
-20.93
-20.02
-18.09
-14.88
-10.15
-3.87
3.55
11.25
18.30
23.98
28.21
31.42
34.26
37.20
40.38
43.61
46.58
49.05
50.90
52.23
53.24
54.18
55.22
56.41
57.63
58.70
59.47
59.78
59.43
57.96
54.69
48.89
40.28
29.41
17.69
7.07
-0.66
-4.43
-4.18
-0.61
5.14
11.78
17.98
22.44
24.09
22.45
17.91
11.66
5.26
-0.03
-3.75
-6.28
-8.49
-11.12
-14.39
-17.88
-20.87
-22.81
-23.47
-23.02
-21.71
-19.69
-16.75
-12.54
-6.80
0.23
7.54
13.46
16.10
14.04
6.83
-4.68
-18.70
-32.87
-44.99
-53.42
-57.32
-56.69
-52.21
-45.08
-36.79
-28.82
-22.42
-18.34
-16.80
-17.52
-19.78
-22.52
-24.56
-24.93
-23.26
-20.04
-16.60
-14.55
-15.13
-18.50
-23.55
-28.33
-30.92
-30.42
-27.43
-23.78
-21.60
-22.36
-26.26
-32.42
-39.80
-48.17
-58.51
-72.53
-91.36
-114.33
-138.50
-159.31
-171.89
-172.42
-159.10
-132.25
-94.03
-48.03
1.16
48.37
88.61
117.91
134.29
138.15
132.01
119.58
104.55
89.67
76.39
65.05
55.39
47.11
40.13
34.51
30.24
26.98
24.16
21.18
17.74
14.02
10.51
7.66
5.60
4.00
2.23
-0.24
-3.59
-7.55
-11.54
-15.08
-17.92
-20.24
-22.30
-24.32
-26.15
-27.40
-27.56
-26.33
-23.82
-20.49
-17.04
-13.99
-11.60
-9.74
-8.12
-6.43
-4.55
-2.60
-0.80
0.62
1.52
1.91
1.90
1.67
1.41
1.31
1.50
2.04
2.90
3.98
5.14
6.20
7.04
7.54
7.64
7.28
6.47
5.28
3.80
2.11
0.36
-1.38
-3.02
-4.50
-5.77
-6.80
-7.63
-8.34
-8.99
-9.65
-10.31
-10.91
-11.41
-11.78
-12.12
-12.60
-13.44
-14.78
-16.63
-18.82
-21.00
-22.73
-23.59
-23.29
-21.69
-18.96
-15.43
-11.60
-8.01
-5.03
-2.85
-1.39
-0.43
0.28
0.89
1.48
2.02
2.47
2.84
3.23
3.70
4.29
4.96
5.57
6.03
6.32
6.53
6.82
7.31
7.96
8.51
8.64
8.07
6.85
5.32
3.99
3.29
3.26
3.55
3.61
3.06
1.85
0.29
-1.17
-2.20
-2.72
-2.79
-2.50
-1.88
-1.06
-0.39
-0.54
-2.31
-6.27
-12.37
-19.87
-27.46
-33.66
-37.27
-37.68
-34.99
-29.84
-23.19
-16.12
-9.57
-4.25
-0.48
1.74
2.77
3.15
3.50
4.25
5.59
7.38
9.23
10.70
11.51
11.62
11.29
10.84
10.58
10.62
10.90
11.32
11.77
12.23
12.62
12.89
12.88
12.43
11.49
10.17
8.75
7.54
6.73
6.29
5.94
5.33
4.21
2.52
0.46
-1.68
-3.57
-5.06
-6.18
-7.09
-8.00
-9.11
-10.53
-12.32
-14.48
-16.95
-19.54
-21.93
-23.67
-24.31
-23.49
-21.11
-17.35
-12.62
-7.51
-2.64
1.48
4.56
6.60
7.84
8.69
9.51
10.52
11.72
12.94
13.97
14.66
14.98
15.03
14.91
14.72
14.49
14.22
13.96
13.81
13.92
14.37
15.18
16.16
17.02
17.39
17.05
15.97
14.38
12.61
10.97
9.56
8.31
7.07
5.74
4.39
3.17
2.16
1.29
0.31
-1.06
-2.95
-5.24
-7.54
-9.44
-10.62
-11.09
-11.12
-11.18
-11.74
-13.08
-15.23
-17.97
-20.89
-23.47
-25.20
-25.70
-24.77
-22.48
-19.12
-15.13
-10.96
-6.95
-3.26
0.07
3.06
5.66
7.80
9.35
10.25
10.60
10.56
10.39
10.26
10.27
10.41
10.64
10.87
11.06
11.20
11.27
11.27
11.18
11.00
10.74
10.41
10.03
9.55
8.91
8.06
6.99
5.73
4.42
3.15
2.02
0.98
-0.05
-1.20
-2.45
-3.71
-4.78
-5.52
-5.93
-6.20
-6.62
-7.39
-8.58
-10.08
-11.63
-13.05
-14.16
-14.85
-15.00
-14.42
-12.95
-10.60
-7.57
-4.27
-1.15
1.50
3.60
5.25
6.62
7.74
8.55
8.90
8.76
8.23
7.55
6.96
6.62
6.59
6.81
7.22
7.78
8.47
9.22
9.95
10.53
10.86
10.89
10.60
10.01
9.09
7.88
6.41
4.85
3.38
2.15
1.26
0.63
0.13
-0.42
-1.15
-2.09
-3.18
-4.28
-5.29
-6.16
-6.93
-7.71
-8.69
-10.01
-11.78
-14.03
-16.63
-19.30
-21.61
-23.07
-23.28
-22.03
-19.44
-15.90
-11.91
-7.96
-4.35
-1.20
1.47
3.66
5.39
6.65
7.50
8.05
8.43
8.77
9.09
9.40
9.71
10.06
10.52
11.11
11.80
12.49
13.02
13.35
13.47
13.46
13.40
13.34
13.24
13.01
12.60
11.99
11.23
10.43
9.70
9.10
8.60
8.13
7.58
6.85
5.89
4.66
3.18
1.47
-0.39
-2.28
-4.10
-5.73
-7.14
-8.41
-9.70
-11.17
-12.96
-15.12
-17.54
-19.96
-21.98
-23.12
-22.96
-21.29
-18.22
-14.16
-9.72
-5.48
-1.82
1.14
3.48
5.33
6.80
7.91
8.64
9.05
9.23
9.36
9.59
10.04
10.79
11.80
13.01
14.22
15.24
15.84
15.93
15.54
14.86
14.14
13.55
13.12
12.72
12.18
11.42
10.48
9.49
8.61
7.89
7.31
6.80
6.29
5.77
5.25
4.74
4.17
3.44
2.44
1.12
-0.49
-2.33
-4.33
-6.42
-8.58
-10.84
-13.22
-15.70
-18.25
-20.77
-23.11
-25.09
-26.54
-27.25
-27.03
-25.75
-23.38
-20.08
-16.08
-11.74
-7.38
-3.21
0.63
4.06
6.94
9.13
10.49
10.99
10.84
10.34
9.87
9.68
9.84
10.22
10.62
10.88
10.97
10.95
10.89
10.82
10.71
10.54
10.31
10.12
10.07
10.20
10.39
10.42
10.08
9.23
7.91
6.32
4.69
3.20
1.92
0.77
-0.39
-1.68
-3.12
-4.65
-6.15
-7.54
-8.88
-10.28
-11.94
-13.96
-16.33
-18.84
-21.15
-22.81
-23.38
-22.54
-20.18
-16.51
-12.01
-7.34
-3.10
0.36
2.97
4.91
6.42
7.66
8.69
9.45
9.95
10.29
10.58
10.95
11.44
12.01
12.59
13.13
13.62
14.02
14.32
14.50
14.59
14.62
14.66
14.67
14.53
14.06
13.17
11.83
10.19
8.44
6.75
5.19
3.76
2.39
1.07
-0.22
-1.45
-2.63
-3.80
-5.01
-6.25
-7.49
-8.69
-9.85
-11.01
-12.27
-13.80
-15.73
-18.17
-21.06
-24.17
-27.03
-29.09
-29.79
-28.83
-26.18
-22.19
-17.37
-12.33
-7.52
-3.25
0.36
3.30
5.61
7.39
8.76
9.86
10.83
11.80
12.81
13.88
14.97
16.06
17.10
18.08
18.93
19.62
20.08
20.28
20.24
20.00
19.62
19.13
18.53
17.79
16.85
15.73
14.47
13.12
11.79
10.51
9.27
8.07
6.86
5.62
4.31
2.92
1.40
-0.25
-2.04
-3.97
-6.01
-8.10
-10.17
-12.17
-14.10
-16.02
-18.09
-20.47
-23.21
-26.10
-28.66
-30.21
-30.20
-28.34
-24.80
-20.10
-14.93
-9.89
-5.36
-1.44
1.84
4.51
6.57
7.99
8.84
9.29
9.54
9.81
10.23
10.83
11.55
12.30
13.02
13.70
14.38
15.09
15.88
16.68
17.39
17.88
18.03
17.80
17.19
16.27
15.10
13.73
12.19
10.51
8.76
7.01
5.36
3.86
2.52
1.27
0.08
-1.10
-2.25
-3.34
-4.34
-5.26
-6.17
-7.23
-8.60
-10.42
-12.78
-15.67
-18.93
-22.31
-25.39
-27.67
-28.68
-28.08
-25.82
-22.14
-17.51
-12.49
-7.54
-2.96
1.09
4.55
7.36
9.46
10.82
11.49
11.62
11.42
11.10
10.85
10.79
11.05
11.67
12.59
13.67
14.72
15.57
16.14
16.48
16.68
16.83
16.93
16.88
16.55
15.87
14.80
13.44
11.90
10.29
8.69
7.13
5.60
4.08
2.55
0.94
-0.80
-2.70
-4.74
-6.81
-8.79
-10.54
-12.04
-13.36
-14.69
-16.27
-18.29
-20.78
-23.53
-26.13
-28.00
-28.55
-27.39
-24.47
-20.11
-14.93
-9.66
-4.85
-0.80
2.50
5.19
7.42
9.27
10.72
11.74
12.38
12.75
13.02
13.31
13.67
14.09
14.57
15.12
15.80
16.60
17.46
18.26
18.86
19.15
19.07
18.61
17.84
16.87
15.82
14.80
13.87
13.05
12.23
11.26
10.02
8.45
6.61
4.66
2.73
0.96
-0.63
-2.06
-3.39
-4.65
-5.86
-7.00
-8.12
-9.26
-10.53
-12.06
-14.01
-16.53
-19.63
-23.20
-26.87
-30.13
-32.32
-32.94
-31.72
-28.73
-24.33
-19.06
-13.48
-8.01
-2.94
1.58
5.46
8.68
11.22
13.13
14.47
15.36
15.94
16.34
16.67
16.98
17.30
17.64
17.97
18.29
18.56
18.76
18.82
18.66
18.20
17.43
16.36
15.04
13.57
12.03
10.51
9.14
8.05
7.35
7.02
6.94
6.86
6.52
5.79
4.67
3.27
1.74
0.18
-1.40
-3.00
-4.60
-6.14
-7.51
-8.69
-9.75
-10.85
-12.22
-14.00
-16.22
-18.78
-21.55
-24.29
-26.71
-28.46
-29.11
-28.29
-25.84
-21.91
-16.96
-11.65
-6.59
-2.16
1.51
4.51
6.97
8.97
10.50
11.49
11.94
11.95
11.72
11.49
11.45
11.66
12.07
12.59
13.15
13.86
14.88
16.37
18.26
20.27
21.86
22.43
21.61
19.31
15.85
11.75
7.67
4.14
1.46
-0.32
-1.37
-1.97
-2.37
-2.69
-2.94
-3.10
-3.21
-3.40
-3.87
-4.74
-6.04
-7.60
-9.21
-10.70
-12.05
-13.37
-14.87
-16.73
-19.01
-21.55
-23.95
-25.64
-26.04
-24.78
-21.92
-17.92
-13.53
-9.47
-6.19
-3.77
-2.01
-0.57
0.77
2.09
3.30
4.33
5.19
5.97
6.88
8.08
9.72
11.81
14.22
16.70
18.92
20.61
21.53
21.66
21.07
19.89
18.25
16.24
13.97
11.58
9.30
7.33
5.85
4.88
4.33
4.04
3.82
3.45
2.78
1.70
0.20
-1.61
-3.50
-5.28
-6.81
-8.18
-9.62
-11.44
-13.84
-16.82
-20.21
-23.65
-26.74
-29.03
-30.14
-29.74
-27.76
-24.34
-19.93
-15.14
-10.60
-6.71
-3.58
-1.09
1.05
3.01
4.81
6.30
7.31
7.82
7.95
7.96
8.08
8.43
8.94
9.48
9.97
10.35
10.64
10.86
10.99
10.91
10.53
9.80
8.75
7.48
6.17
5.03
4.21
3.84
3.91
4.23
4.49
4.38
3.63
2.20
0.19
-2.17
-4.63
-7.03
-9.25
-11.27
-13.10
-14.79
-16.43
-18.06
-19.65
-20.98
-21.74
-21.54
-20.13
-17.48
-13.85
-9.70
-5.51
-1.64
1.77
4.70
7.13
8.98
10.10
10.37
9.80
8.69
7.52
6.85
7.06
8.18
9.90
11.67
12.99
13.58
13.49
12.98
12.39
11.96
11.65
11.32
10.73
9.75
8.41
6.84
5.20
3.58
1.95
0.22
-1.63
-3.57
-5.46
-7.22
-8.81
-10.33
-11.92
-13.66
-15.48
-17.08
-18.08
-18.09
-16.92
-14.63
-11.55
-8.17
-4.93
-2.10
0.25
2.21
3.87
5.27
6.28
6.80
6.81
6.47
6.06
5.87
6.04
6.52
7.16
7.72
8.12
8.31
8.33
8.21
7.95
7.57
7.05
6.41
5.72
5.04
4.46
4.00
3.64
3.29
2.80
2.03
0.88
-0.57
-2.15
-3.66
-5.01
-6.25
-7.59
-9.25
-11.35
-13.83
-16.47
-18.95
-20.90
-21.97
-21.91
-20.61
-18.16
-14.83
-11.06
-7.31
-3.88
-0.95
1.50
3.48
5.00
6.01
6.44
6.33
5.82
5.15
4.56
4.20
4.09
4.23
4.54
4.99
5.55
6.22
6.97
7.74
8.49
9.13
9.55
9.65
9.37
8.70
7.75
6.65
5.54
4.43
3.28
1.98
0.50
-1.09
-2.66
-4.05
-5.17
-6.08
-6.93
-7.94
-9.32
-11.21
-13.64
-16.45
-19.34
-21.81
-23.33
-23.47
-22.07
-19.29
-15.54
-11.39
-7.32
-3.67
-0.59
1.95
4.02
5.71
7.07
8.08
8.71
8.96
8.90
8.69
8.53
8.59
8.89
9.33
9.75
10.06
10.23
10.33
10.43
10.51
10.44
10.09
9.36
8.23
6.79
5.17
3.50
1.84
0.22
-1.38
-2.99
-4.63
-6.26
-7.81
-9.21
-10.43
-11.53
-12.71
-14.18
-16.09
-18.46
-21.16
-23.87
-26.21
-27.73
-28.02
-26.82
-24.09
-20.07
-15.23
-10.11
-5.23
-0.88
2.78
5.73
7.97
9.55
10.52
11.03
11.27
11.47
11.79
12.24
12.71
13.06
13.15
12.99
12.69
12.49
12.55
12.95
13.60
14.26
14.60
14.37
13.42
11.78
9.62
7.19
4.78
2.67
1.06
0.01
-0.55
-0.87
-1.24
-1.91
-2.95
-4.29
-5.77
-7.27
-8.79
-10.43
-12.28
-14.42
-16.78
-19.26
-21.71
-23.93
-25.67
-26.62
-26.45
-24.94
-22.10
-18.18
-13.66
-9.09
-4.86
-1.20
1.84
4.29
6.17
7.52
8.37
8.78
8.85
8.76
8.63
8.61
8.78
9.18
9.80
10.54
11.25
11.79
12.14
12.32
12.46
12.68
13.00
13.34
13.57
13.58
13.28
12.65
11.69
10.44
8.97
7.39
5.86
4.47
3.26
2.21
1.21
0.19
-0.88
-1.98
-3.04
-4.00
-4.88
-5.74
-6.71
-7.90
-9.42
-11.32
-13.62
-16.25
-19.04
-21.69
-23.80
-24.96
-24.85
-23.36
-20.64
-17.03
-12.99
-8.90
-5.10
-1.74
1.08
3.38
5.17
6.44
7.20
7.47
7.36
7.09
6.91
7.06
7.62
8.44
9.22
9.72
9.86
9.82
9.89
10.31
11.07
11.91
12.43
12.25
11.24
9.48
7.28
5.01
2.99
1.37
0.12
-0.89
-1.84
-2.84
-3.91
-4.97
-5.95
-6.83
-7.68
-8.61
-9.67
-10.83
-12.03
-13.24
-14.44
-15.68
-16.91
-17.91
-18.30
-17.64
-15.70
-12.53
-8.54
-4.33
-0.46
2.75
5.29
7.40
9.32
11.10
12.58
13.47
13.57
12.87
11.66
10.38
9.38
8.80
8.54
8.37
8.14
7.83
7.63
7.72
8.18
8.83
9.36
9.47
9.02
8.12
7.03
6.05
5.34
4.87
4.43
3.75
2.66
1.14
-0.67
-2.56
-4.36
-5.99
-7.50
-9.02
-10.70
-12.65
-14.91
-17.40
-20.00
-22.52
-24.67
-26.13
-26.52
-25.50
-22.95
-18.99
-14.00
-8.58
-3.31
1.39
5.34
8.55
11.20
13.44
15.33
16.83
17.82
18.20
17.98
17.32
16.47
15.70
15.18
14.87
14.62
14.24
13.64
12.88
12.16
11.62
11.28
11.03
10.69
10.14
9.38
8.51
7.59
6.63
5.50
4.14
2.54
0.87
-0.69
-2.02
-3.13
-4.14
-5.19
-6.33
-7.47
-8.50
-9.40
-10.28
-11.31
-12.66
-14.36
-16.33
-18.46
-20.68
-23.03
-25.46
-27.77
-29.48
-29.94
-28.56
-25.07
-19.66
-13.02
-6.03
0.43
5.75
9.71
12.44
14.35
15.87
17.32
18.83
20.27
21.39
21.96
21.90
21.28
20.27
19.06
17.72
16.27
14.73
13.16
11.71
10.59
9.89
9.57
9.40
9.12
8.51
7.52
6.23
4.83
3.51
2.38
1.45
0.69
0.02
-0.70
-1.58
-2.71
-4.10
-5.63
-7.12
-8.38
-9.31
-10.00
-10.66
-11.58
-12.94
-14.79
-17.00
-19.35
-21.58
-23.42
-24.60
-24.79
-23.73
-21.31
-17.68
-13.27
-8.64
-4.32
-0.64
2.36
4.81
6.86
8.62
10.01
10.90
11.23
11.06
10.62
10.20
10.03
10.20
10.61
11.08
11.41
11.51
11.43
11.30
11.27
11.39
11.60
11.69
11.47
10.79
9.66
8.27
6.86
5.69
4.84
4.31
3.88
3.29
2.34
0.99
-0.65
-2.37
-3.93
-5.27
-6.47
-7.71
-9.15
-10.85
-12.75
-14.78
-16.92
-19.24
-21.76
-24.27
-26.29
-27.16
-26.29
-23.46
-18.97
-13.54
-8.02
-3.09
0.95
4.12
6.58
8.47
9.80
10.55
10.79
10.67
10.47
10.45
10.74
11.29
11.97
12.58
13.04
13.34
13.55
13.77
14.02
14.30
14.51
14.54
14.28
13.66
12.67
11.38
9.94
8.48
7.16
6.06
5.19
4.48
3.80
3.03
2.06
0.82
-0.69
-2.43
-4.28
-6.08
-7.68
-9.02
-10.17
-11.31
-12.69
-14.50
-16.80
-19.49
-22.29
-24.85
-26.78
-27.70
-27.34
-25.57
-22.47
-18.35
-13.63
-8.83
-4.34
-0.45
2.73
5.23
7.12
8.46
9.27
9.61
9.52
9.18
8.82
8.69
8.95
9.62
10.58
11.61
12.49
13.10
13.44
13.61
13.72
13.81
13.84
13.67
13.17
12.25
10.97
9.50
8.07
6.90
6.06
5.52
5.10
4.62
3.93
2.98
1.80
0.45
-0.99
-2.43
-3.76
-4.96
-6.03
-7.07
-8.25
-9.73
-11.63
-13.99
-16.78
-19.87
-22.97
-25.69
-27.53
-28.01
-26.86
-24.15
-20.31
-15.93
-11.59
-7.62
-4.11
-0.99
1.74
3.98
5.57
6.42
6.67
6.63
6.66
7.04
7.80
8.78
9.71
10.39
10.73
10.80
10.79
10.87
11.16
11.63
12.11
12.36
12.22
11.65
10.76
9.74
8.76
7.87
7.00
6.06
4.99
3.78
2.49
1.15
-0.23
-1.65
-3.04
-4.37
-5.59
-6.73
-7.91
-9.24
-10.85
-12.77
-14.94
-17.31
-19.75
-22.11
-24.11
-25.36
-25.45
-24.10
-21.33
-17.47
-13.05
-8.62
-4.58
-1.09
1.89
4.41
6.49
8.08
9.12
9.65
9.82
9.85
9.93
10.16
10.54
11.01
11.52
12.07
12.68
13.39
14.14
14.85
15.36
15.53
15.29
14.62
13.57
12.16
10.48
8.61
6.68
4.83
3.19
1.78
0.53
-0.67
-1.89
-3.11
-4.24
-5.19
-5.95
-6.66
-7.51
-8.68
-10.22
-12.07
-14.12
-16.34
-18.74
-21.29
-23.81
-25.92
-27.10
-26.93
-25.25
-22.24
-18.34
-14.04
-9.74
-5.69
-1.96
1.36
4.14
6.22
7.49
7.96
7.79
7.28
6.73
6.42
6.57
7.26
8.42
9.86
11.36
12.69
13.74
14.53
15.18
15.79
16.38
16.82
16.91
16.57
15.79
14.75
13.65
12.57
11.47
10.21
8.69
6.99
5.32
3.87
2.73
1.80
0.82
-0.43
-2.00
-3.79
-5.62
-7.35
-8.97
-10.61
-12.39
-14.43
-16.78
-19.44
-22.33
-25.25
-27.81
-29.49
-29.80
-28.44
-25.49
-21.31
-16.47
-11.47
-6.69
-2.28
1.72
5.24
8.16
10.34
11.68
12.20
12.08
11.60
11.06
10.74
10.78
11.22
11.99
12.95
13.94
14.84
15.60
16.16
16.50
16.56
16.30
15.71
14.86
13.91
13.03
12.35
11.84
11.34
10.67
9.71
8.40
6.85
5.16
3.47
1.84
0.30
-1.18
-2.59
-3.93
-5.21
-6.46
-7.77
-9.22
-10.89
-12.80
-14.95
-17.31
-19.84
-22.53
-25.27
-27.80
-29.72
-30.54
-29.83
-27.43
-23.53
-18.62
-13.32
-8.22
-3.68
0.15
3.32
5.90
7.92
9.35
10.15
10.34
10.06
9.56
9.09
8.89
9.06
9.60
10.40
11.31
12.20
13.01
13.69
14.23
14.59
14.71
14.51
13.92
12.95
11.68
10.26
8.85
7.56
6.45
5.50
4.66
3.88
3.15
2.41
1.58
0.63
-0.48
-1.70
-2.95
-4.18
-5.41
-6.68
-8.10
-9.72
-11.55
-13.58
-15.81
-18.24
-20.73
-23.02
-24.63
-25.09
-24.03
-21.38
-17.44
-12.74
-7.90
-3.41
0.42
3.49
5.85
7.64
8.96
9.85
10.32
10.39
10.10
9.61
9.18
9.01
9.25
9.89
10.77
11.71
12.57
13.32
14.02
14.68
15.25
15.56
15.38
14.60
13.27
11.60
9.90
8.45
7.39
6.64
6.03
5.33
4.39
3.13
1.58
-0.16
-1.99
-3.81
-5.59
-7.36
-9.17
-11.14
-13.34
-15.81
-18.57
-21.60
-24.89
-28.34
-31.67
-34.41
-35.89
-35.52
-33.01
-28.54
-22.74
-16.48
-10.51
-5.28
-0.85
2.95
6.25
9.04
11.16
12.46
12.96
12.86
12.51
12.22
12.19
12.48
13.02
13.76
14.63
15.61
16.66
17.67
18.52
19.07
19.23
18.98
18.36
17.48
16.42
15.27
14.09
12.86
11.62
10.31
8.96
7.54
6.09
4.64
3.15
1.62
0.04
-1.57
-3.15
-4.67
-6.13
-7.59
-9.14
-10.84
-12.75
-14.87
-17.24
-19.92
-22.93
-26.11
-29.09
-31.29
-32.06
-31.04
-28.23
-23.98
-18.90
-13.54
-8.30
-3.42
0.95
4.65
7.51
9.41
10.39
10.68
10.59
10.47
10.55
10.91
11.51
12.24
13.01
13.74
14.41
15.06
15.70
16.35
16.99
17.54
17.89
18.00
17.85
17.47
16.91
16.19
15.35
14.40
13.37
12.32
11.29
10.31
9.32
8.26
6.97
5.32
3.27
0.86
-1.75
-4.37
-6.80
-8.93
-10.72
-12.26
-13.66
-15.11
-16.81
-18.97
-21.73
-25.01
-28.48
-31.51
-33.39
-33.54
