1539250019.00
64.000000
-0.00
-0.00
-0.00
-0.00
-0.00
-0.00
-0.00
-0.00
-0.00
-0.00
0.00
0.01
0.01
-0.00
-0.03
-0.05
-0.05
0.00
0.13
0.36
0.66
1.01
1.37
1.72
2.06
2.40
2.79
3.24
3.80
4.42
5.06
5.66
6.20
6.68
7.15
7.68
8.31
9.14
10.09
11.04
11.88
12.56
13.14
13.76
14.65
15.96
17.91
20.32
22.90
25.38
27.58
29.57
31.68
34.32
37.81
42.54
48.15
54.10
59.83
64.97
69.58
74.14
79.34
85.71
93.76
103.00
112.62
121.73
129.77
136.75
143.30
150.75
157.77
166.64
177.95
191.79
206.97
220.57
228.25
225.36
208.53
176.87
132.76
80.05
23.07
-34.94
-92.44
-149.16
-205.23
-260.37
-313.74
-363.87
-409.83
-450.91
-486.50
-515.74
-537.23
-549.22
-549.96
-538.37
-514.21
-478.67
-433.88
-382.45
-327.02
-269.84
-212.63
-156.66
-102.95
-52.37
-5.90
35.58
71.43
101.35
125.50
144.38
158.69
169.15
176.37
180.75
182.57
182.07
179.51
175.23
169.65
163.18
156.15
148.81
141.30
133.69
126.02
118.33
110.69
103.16
95.80
88.68
81.83
75.25
68.95
62.95
57.25
51.86
46.78
42.03
37.59
33.45
29.61
26.07
22.81
19.83
17.11
14.67
12.48
10.54
8.83
7.35
6.07
4.97
4.05
3.27
2.62
2.09
1.65
1.30
1.01
0.79
0.61
0.47
0.37
0.29
0.23
0.19
0.17
0.16
0.16
0.17
0.18
0.21
0.23
0.27
0.31
0.35
0.39
0.44
0.48
0.53
0.58
0.63
0.69
0.75
0.81
0.88
0.95
1.03
1.13
1.23
1.35
1.47
1.62
1.78
1.96
2.16
2.39
2.64
2.91
3.21
3.54
3.90
4.30
4.73
5.19
5.70
6.24
6.82
7.44
8.10
8.81
9.57
10.37
11.21
12.11
13.04
14.03
15.07
16.18
17.36
18.61
19.89
21.18
22.39
23.43
24.18
24.53
24.37
23.62
22.23
20.15
17.41
14.03
10.05
5.62
0.96
-3.73
-8.20
-12.22
-15.63
-18.34
-20.34
-21.69
-22.47
-22.77
-22.63
-22.10
-21.19
-19.97
-18.58
-17.18
-15.98
-15.11
-14.59
-14.31
-14.07
-13.64
-12.94
-12.05
-11.22
-10.75
-10.87
-11.58
-12.64
-13.65
-14.20
-14.11
-13.50
-12.83
-12.65
-13.35
-15.00
-17.28
-19.62
-21.48
-22.59
-23.06
-23.34
-23.95
-25.45
-28.35
-32.97
-39.24
-46.35
-52.59
-55.55
-52.93
-43.54
-27.98
-8.69
10.89
27.53
39.32
45.96
48.34
47.75
45.19
41.49
37.06
32.34
27.85
24.10
21.30
19.23
17.27
14.67
10.96
6.10
0.58
-4.89
-9.68
-13.55
-16.85
-20.33
-24.80
-30.70
-37.78
-44.90
-50.33
-52.26
-49.37
-41.42
-29.22
-14.45
1.01
15.51
28.05
38.21
45.91
51.14
53.78
53.78
51.30
46.89
41.46
36.08
31.63
28.62
27.08
26.71
27.10
27.94
29.07
30.44
31.94
33.33
34.32
34.63
34.14
32.91
31.11
28.88
26.33
23.48
20.31
16.87
13.26
9.61
6.01
2.52
-0.91
-4.39
-8.04
-11.98
-16.25
-20.73
-25.12
-29.05
-32.16
-34.31
-35.77
-37.14
-39.21
-42.63
-47.64
-53.84
-60.24
-65.38
-67.78
-66.31
-60.49
-50.67
-37.88
-23.52
-9.00
4.56
16.40
26.12
33.46
38.26
40.41
40.00
37.44
33.46
29.03
25.09
22.40
21.26
21.56
22.89
24.75
26.68
28.45
29.94
31.12
31.85
31.94
31.21
29.58
27.21
24.37
21.45
18.69
16.18
13.80
11.33
8.63
5.67
2.63
-0.26
-2.80
-4.97
-6.95
-9.03
-11.49
-14.42
-17.70
-20.98
-23.96
-26.43
-28.46
-30.32
-32.46
-35.36
-39.40
-44.72
-51.07
-57.69
-63.34
-66.56
-66.07
-61.16
-51.99
-39.50
-25.12
-10.28
3.77
16.16
26.30
33.74
38.23
39.76
38.70
35.82
32.10
28.49
25.69
23.98
23.32
23.50
24.29
25.53
27.09
28.84
30.54
31.85
32.45
32.12
30.84
28.80
26.35
23.85
21.58
19.62
17.89
16.19
14.30
12.10
9.63
7.01
4.43
2.02
-0.22
-2.39
-4.64
-7.08
-9.75
-12.58
-15.45
-18.26
-20.93
-23.54
-26.21
-29.24
-32.98
-37.76
-43.72
-50.61
-57.73
-63.91
-67.80
-68.15
-64.27
-56.18
-44.62
-30.87
-16.36
-2.44
9.92
20.09
27.76
32.79
35.23
35.28
33.39
30.29
26.84
23.86
21.96
21.33
21.76
22.81
24.01
24.99
25.67
26.09
26.34
26.36
25.94
24.87
23.03
20.52
17.68
14.92
12.52
10.50
8.70
6.87
4.86
2.72
0.60
-1.40
-3.39
-5.62
-8.44
-11.97
-16.09
-20.38
-24.35
-27.68
-30.35
-32.67
-35.06
-37.97
-41.69
-46.35
-51.84
-57.80
-63.52
-67.95
-69.90
-68.29
-62.62
-53.14
-40.88
-27.31
-13.96
-1.90
8.34
16.72
23.39
28.44
31.76
33.16
32.63
30.45
27.34
24.22
21.96
21.13
21.80
23.62
26.00
28.39
30.38
31.85
32.76
33.12
32.86
31.89
30.14
27.63
24.55
21.15
17.67
14.26
10.94
7.67
4.36
0.98
-2.47
-5.99
-9.57
-13.19
-16.79
-20.29
-23.57
-26.54
-29.21
-31.75
-34.42
-37.56
-41.52
-46.51
-52.45
-58.79
-64.48
-68.17
-68.51
-64.66
-56.58
-45.17
-31.89
-18.31
-5.65
5.44
14.81
22.52
28.58
32.86
35.16
35.42
33.94
31.29
28.29
25.72
24.15
23.73
24.32
25.49
26.83
28.04
29.03
29.79
30.37
30.76
30.82
30.37
29.23
27.28
24.56
21.23
17.59
13.98
10.70
7.82
5.25
2.69
-0.18
-3.60
-7.53
-11.76
-15.89
-19.57
-22.60
-25.07
-27.28
-29.80
-33.21
-37.97
-44.16
-51.33
-58.44
-64.10
-66.83
-65.56
-59.92
-50.37
-38.00
-24.23
-10.45
2.29
13.38
22.55
29.70
34.74
37.57
38.14
36.67
33.69
30.00
26.51
23.92
22.55
22.35
22.97
24.08
25.43
26.93
28.54
30.19
31.63
32.50
32.43
31.17
28.71
25.33
21.51
17.79
14.58
12.06
10.06
8.19
6.00
3.11
-0.58
-4.92
-9.58
-14.18
-18.39
-22.08
-25.31
-28.38
-31.68
-35.65
-40.60
-46.53
-52.98
-59.06
-63.53
-65.06
-62.72
-56.17
-45.89
-32.99
-18.97
-5.23
7.16
17.64
26.00
32.24
36.31
38.13
37.71
35.28
31.51
27.31
23.74
21.55
21.00
21.81
23.38
25.08
26.52
27.63
28.51
29.24
29.71
29.67
28.84
27.11
24.60
21.63
18.60
15.83
13.44
11.33
9.23
6.82
3.88
0.35
-3.58
-7.57
-11.19
-14.10
-16.22
-17.79
-19.31
-21.42
-24.71
-29.54
-35.92
-43.42
-51.16
-57.92
-62.39
-63.40
-60.27
-53.00
-42.24
-29.22
-15.35
-1.92
10.10
20.10
27.81
33.11
35.98
36.54
35.09
32.20
28.68
25.36
22.95
21.79
21.88
22.90
24.42
26.07
27.58
28.85
29.80
30.36
30.37
29.61
27.93
25.36
22.13
18.62
15.28
12.42
10.02
7.78
5.23
2.02
-1.93
-6.36
-10.73
-14.55
-17.48
-19.52
-20.98
-22.30
-23.99
-26.53
-30.34
-35.66
-42.51
-50.44
-58.42
-64.96
-68.36
-67.31
-61.30
-50.85
-37.33
-22.50
-8.02
5.01
15.99
24.67
30.94
34.70
35.93
34.94
32.45
29.49
27.13
26.12
26.60
28.17
30.13
31.78
32.68
32.71
32.01
30.81
29.26
27.44
25.30
22.78
19.90
16.71
13.37
10.10
7.15
4.64
2.55
0.60
-1.60
-4.36
-7.76
-11.50
-15.05
-17.86
-19.65
-20.62
-21.33
-22.48
-24.66
-28.17
-33.03
-39.05
-45.89
-52.94
-59.25
-63.52
-64.42
-60.96
-52.99
-41.33
-27.59
-13.59
-0.81
9.93
18.48
25.04
29.83
32.85
34.03
33.35
31.13
28.08
25.11
23.03
22.31
22.93
24.48
26.38
28.15
29.58
30.64
31.39
31.81
31.77
31.00
29.29
26.61
23.12
19.16
15.16
11.49
8.35
5.75
3.51
1.34
-1.01
-3.72
-6.78
-10.03
-13.29
-16.38
-19.27
-21.99
-24.66
-27.40
-30.40
-33.91
-38.22
-43.46
-49.36
-55.14
-59.50
-61.02
-58.64
-52.04
-41.83
-29.30
-16.00
-3.21
8.21
17.89
25.64
31.36
34.91
36.26
35.60
33.41
30.40
27.30
24.76
23.23
22.86
23.58
25.12
27.08
29.02
30.59
31.58
31.98
31.88
31.38
30.53
29.24
27.40
24.93
21.84
18.34
14.74
11.36
8.41
5.90
3.62
1.23
-1.58
-4.93
-8.69
-12.59
-16.30
-19.60
-22.49
-25.14
-27.86
-30.94
-34.75
-39.54
-45.45
-52.23
-59.16
-65.00
-68.24
-67.50
-62.04
-52.08
-38.76
-23.84
-9.10
4.04
14.86
23.22
29.34
33.43
35.64
36.01
34.70
32.18
29.18
26.59
25.11
25.01
26.08
27.75
29.39
30.61
31.35
31.78
32.08
32.25
32.03
31.07
29.13
26.21
22.61
18.74
14.99
11.55
8.42
5.45
2.51
-0.57
-3.81
-7.25
-10.79
-14.37
-17.82
-21.05
-23.98
-26.66
-29.21
-31.80
-34.67
-38.08
-42.24
-47.26
-52.91
-58.56
-63.12
-65.37
-64.24
-59.24
-50.67
-39.52
-27.20
-15.13
-4.35
4.54
11.36
16.12
18.84
19.48
18.08
14.85
10.31
5.28
0.67
-2.84
-4.95
-5.86
-6.07
-6.14
-6.46
-7.17
-8.24
-9.64
-11.44
-13.88
-17.23
-21.60
-26.78
-32.27
-37.37
-41.34
-43.63
-43.92
-42.16
-38.50
-33.14
-26.36
-18.42
-9.62
-0.31
9.11
18.11
26.08
32.34
36.24
37.17
34.80
29.23
21.14
11.81
2.96
-3.58
-6.42
-4.96
0.42
8.58
18.03
27.43
35.81
42.66
47.81
51.17
52.69
52.37
50.36
47.04
43.00
38.91
35.34
32.66
30.98
30.20
30.12
30.49
31.12
31.78
32.25
32.23
31.47
29.80
27.26
24.14
20.80
17.53
14.41
11.28
7.86
3.93
-0.51
-5.30
-10.10
-14.63
-18.72
-22.37
-25.74
-29.09
-32.80
-37.20
-42.51
-48.59
-54.78
-59.94
-62.73
-61.99
-57.17
-48.54
-37.11
-24.27
-11.50
0.09
9.78
17.27
22.52
25.61
26.73
26.12
24.15
21.28
18.12
15.27
13.24
12.34
12.53
13.54
14.93
16.30
17.41
18.18
18.67
18.91
18.84
18.31
17.14
15.18
12.41
8.95
5.08
1.13
-2.61
-5.94
-8.84
-11.47
-14.05
-16.81
-19.97
-23.73
-28.28
-33.82
-40.37
-47.57
-54.49
-59.74
-61.83
-59.65
-52.93
-42.48
-29.88
-16.99
-5.27
4.45
12.17
18.26
23.14
26.95
29.50
30.59
30.17
28.58
26.44
24.49
23.26
22.93
23.37
24.20
25.11
25.88
26.44
26.76
26.78
26.36
25.36
23.67
21.26
18.21
14.68
10.83
6.86
2.90
-0.92
-4.59
-8.15
-11.75
-15.57
-19.80
-24.63
-30.16
-36.45
-43.34
-50.38
-56.72
-61.14
-62.37
-59.45
-52.20
-41.31
-28.20
-14.55
-1.81
9.19
18.18
25.24
30.48
33.88
35.33
34.87
32.85
29.95
27.06
24.92
23.96
24.12
25.01
26.06
26.79
26.92
26.47
25.59
24.46
23.14
21.57
19.58
17.09
14.11
10.82
7.46
4.20
1.12
-1.85
-4.80
-7.82
-10.93
-14.13
-17.45
-21.08
-25.32
-30.47
-36.68
-43.59
-50.38
-55.68
-58.07
-56.44
-50.49
-40.81
-28.76
-15.97
-3.82
6.88
15.91
23.34
29.22
33.36
35.46
35.34
33.23
29.89
26.37
23.65
22.31
22.34
23.29
24.58
25.82
26.87
27.81
28.62
29.17
29.07
28.06
26.06
23.36
20.40
17.60
15.07
12.60
9.85
6.48
2.47
-1.86
-6.05
-9.67
-12.55
-14.85
-17.02
-19.62
-23.20
-28.03
-34.04
-40.71
-47.08
-51.86
-53.71
-51.66
-45.44
-35.60
-23.41
-10.40
1.98
12.80
21.63
28.40
33.16
35.93
36.76
35.82
33.56
30.67
27.86
25.71
24.44
23.93
23.94
24.19
24.48
24.66
24.57
23.89
22.33
19.66
15.94
11.48
6.75
2.23
-1.80
-5.31
-8.55
-11.84
-15.51
-19.71
-24.36
-29.07
-33.29
-36.57
-38.65
-39.74
-40.53
-41.95
-44.88
-49.60
-55.55
-61.13
-64.18
-62.56
-54.99
-41.51
-23.57
-3.53
16.05
33.14
46.53
55.81
61.08
62.64
60.85
56.21
49.57
42.02
34.89
29.37
26.14
25.15
25.62
26.21
25.54
22.65
17.41
10.63
3.74
-1.66
-4.40
-4.16
-1.52
2.32
5.95
8.20
8.41
6.46
2.71
-2.27
-7.83
-13.38
-18.60
-23.33
-27.80
-32.52
-38.06
-44.89
-52.93
-61.34
-68.55
-72.69
-72.26
-66.69
-56.47
-42.99
-28.06
-13.43
-0.45
10.01
17.60
22.41
24.85
25.57
25.31
24.84
24.87
26.12
29.21
34.52
41.98
50.83
59.79
67.30
72.00
73.21
70.90
65.62
58.40
50.39
42.76
36.45
31.95
29.27
28.05
27.81
28.28
29.63
32.38
37.10
44.29
54.14
66.37
80.04
93.38
103.98
109.23
107.19
97.45
81.53
62.60
44.50
30.59
22.72
20.97
23.96
29.65
36.03
41.71
45.88
48.25
48.69
47.16
43.81
39.07
33.80
29.09
25.88
24.45
24.23
23.97
22.30
18.46
12.60
5.73
-0.85
-6.27
-10.52
-14.40
-19.12
-25.65
-34.17
-44.06
-54.11
-63.07
-70.13
-75.18
-78.85
-82.20
-86.32
-91.90
-98.89
-106.44
-113.11
-117.22
-117.34
-112.75
-103.60
-90.84
-75.97
-60.58
-46.00
-33.10
-22.30
-13.71
-7.37
-3.37
-1.84
-2.75
-5.73
-10.01
-14.46
-17.88
-19.35
-18.56
-15.76
-11.70
-7.22
-2.99
0.61
3.46
5.54
6.78
7.04
6.22
4.35
1.60
-1.69
-5.27
-9.07
-13.34
-18.51
-25.04
-33.11
-42.46
-52.24
-61.10
-67.47
-69.93
-67.61
-60.52
-49.53
-36.09
-21.78
-7.97
4.43
14.90
23.12
28.89
32.03
32.55
30.73
27.17
22.68
18.12
14.15
11.21
9.40
8.57
8.38
8.47
8.53
8.43
8.24
8.06
7.97
7.85
7.46
6.48
4.56
1.40
-3.24
-9.52
-17.29
-26.01
-34.74
-42.23
-47.27
-48.99
-47.13
-41.99
-34.30
-25.07
-15.37
-6.17
1.73
7.80
11.74
13.58
13.61
12.33
10.40
8.46
7.02
6.21
5.80
5.22
3.89
1.44
-2.08
-6.17
-10.15
-13.38
-15.47
-16.32
-16.14
-15.27
-14.23
-13.53
-13.65
-14.74
-16.50
-18.09
-18.22
-15.55
-9.10
1.38
15.23
30.99
46.67
60.14
69.46
73.23
70.75
62.18
48.63
31.99
14.57
-1.44
-14.49
-23.94
-30.06
-33.62
-35.55
-36.56
-37.08
-37.33
-37.49
-37.77
-38.38
-39.48
-41.17
-43.53
-46.66
-50.80
-56.17
-62.70
-69.78
-76.09
-79.84
-79.24
-73.23
-61.92
-46.67
-29.68
-13.12
1.43
13.38
22.83
30.12
35.35
38.30
38.66
36.47
32.34
27.24
22.23
17.94
14.37
11.09
7.65
3.97
0.48
-2.10
-3.15
-2.55
-0.85
0.96
1.68
0.31
-3.71
-10.26
-18.43
-26.63
-32.88
-35.26
-32.55
-24.70
-12.89
0.90
14.51
26.28
35.41
41.81
45.73
47.40
46.87
44.18
39.57
33.68
27.43
21.73
17.12
13.67
11.01
8.59
6.05
3.32
0.61
-1.77
-3.67
-5.27
-7.06
-9.70
-13.80
-19.58
-26.67
-34.04
-40.16
-43.44
-42.60
-37.18
-27.58
-14.95
-0.85
13.16
25.81
36.22
43.86
48.49
50.15
49.12
46.01
41.65
36.94
32.62
29.13
26.60
24.90
23.85
23.25
22.95
22.53
21.52
19.62
16.78
13.23
9.03
4.25
-1.04
-6.77
-13.13
-19.93
-26.22
-30.21
-29.56
-22.65
-8.88
10.93
34.62
58.59
79.32
94.51
103.56
107.57
107.82
106.27
105.43
107.89
113.77
122.41
133.15
145.60
160.31
175.71
190.73
205.75
221.72
235.80
245.09
248.91
249.26
250.77
252.70
252.49
247.40
234.50
205.83
156.53
88.99
12.63
-57.94
-117.70
-166.47
-206.38
-241.86
-285.62
-348.47
-433.40
-534.03
-634.52
-726.44
-802.18
-853.71
-826.05
-690.48
-465.53
-210.54
-14.15
117.20
194.16
228.64
237.12
228.96
203.83
161.77
108.15
54.03
15.21
-4.96
-8.13
2.66
22.59
41.04
49.38
45.34
33.58
24.48
20.27
20.06
22.35
24.97
22.92
13.01
-3.65
-21.92
-33.71
-37.00
-32.77
-23.30
-11.92
-3.38
-1.02
-5.20
-13.34
-20.78
-25.64
-27.63
-27.37
-26.09
-25.55
-27.01
-30.71
-35.96
-41.52
-47.16
-53.14
-59.82
-67.64
-76.80
-87.28
-98.87
-111.23
-124.21
-137.96
-153.03
-170.11
-189.67
-211.62
-235.18
-259.10
-282.21
-303.92
-324.40
-344.55
-365.45
-387.87
-411.80
-436.37
-459.74
-479.21
-491.46
-492.83
-480.10
-451.30
-406.58
-348.82
-283.29
-216.44
-154.18
-100.22
-55.24
-17.33
16.72
49.98
84.19
119.69
155.84
191.67
226.31
259.00
289.00
315.44
337.64
355.50
369.91
382.79
396.79
414.58
437.82
466.08
496.25
523.01
540.41
544.11
533.25
510.83
482.39
453.51
427.60
404.94
383.54
360.92
335.79
308.60
280.96
254.59
230.45
208.73
189.37
172.60
159.05
149.36
143.51
140.50
138.45
135.21
129.28
120.31
109.26
97.82
87.68
79.66
73.45
67.78
61.14
52.38
41.18
28.10
14.25
0.80
-11.22
-21.23
-29.02
-34.62
-38.25
-40.35
-41.53
-42.53
-43.98
-46.27
-49.38
-52.88
-56.17
-58.71
-60.28
-61.03
-61.46
-62.27
-64.11
-67.26
-71.53
-76.10
-79.76
-81.17
-79.45
-74.45
-66.79
-57.69
-48.48
-40.16
-33.25
-27.81
-23.73
-20.89
-19.27
-18.83
-19.34
-20.32
-21.11
-21.09
-19.93
-17.73
-14.89
-11.94
-9.27
-7.06
-5.28
-3.87
-2.91
-2.61
-3.21
-4.80
-7.24
-10.14
-12.96
-15.23
-16.71
-17.45
-17.72
-18.00
-18.71
-20.15
-22.39
-25.29
-28.47
-31.39
-33.41
-33.86
-32.21
-28.28
-22.34
-15.12
-7.62
-0.82
4.61
8.44
10.82
12.04
12.28
11.52
9.64
6.68
2.96
-0.90
-4.15
-6.24
-7.03
-6.80
-6.08
-5.40
-5.11
-5.24
-5.66
-6.20
-6.76
-7.39
-8.14
-9.03
-9.99
-10.92
-11.85
-13.02
-14.78
-17.39
-20.79
-24.36
-27.17
-28.18
-26.75
-22.87
-17.23
-10.86
-4.77
0.42
4.58
7.83
10.31
12.02
12.75
12.28
10.63
8.12
5.29
2.72
0.75
-0.57
-1.50
-2.37
-3.46
-4.82
-6.36
-7.85
-9.12
-10.13
-10.96
-11.88
-13.17
-15.15
-17.96
-21.60
-25.86
-30.29
-34.30
-37.23
-38.46
-37.59
-34.50
-29.42
-22.90
-15.65
-8.39
-1.66
4.23
9.15
13.03
15.72
17.04
16.90
15.45
13.18
10.77
8.94
8.08
8.21
8.94
9.67
9.80
9.03
7.30
4.82
1.98
-0.90
-3.58
-6.09
-8.56
-11.25
-14.40
-18.04
-22.00
-25.89
-29.20
-31.37
-31.92
-30.51
-27.06
-21.76
-15.02
-7.51
0.10
7.15
13.12
17.67
20.57
21.76
21.36
19.65
17.06
14.12
11.31
9.00
7.37
6.41
5.95
5.71
5.43
4.82
3.75
2.17
0.11
-2.31
-4.97
-7.77
-10.66
-13.61
-16.68
-20.00
-23.72
-27.87
-32.25
-36.36
-39.42
-40.62
-39.39
-35.55
-29.41
-21.68
-13.21
-4.84
2.69
8.88
13.39
16.04
16.85
16.05
14.05
11.42
8.78
6.62
5.26
4.75
4.94
5.58
6.38
7.09
7.51
7.45
6.76
5.39
3.42
1.06
-1.39
-3.73
-5.90
-7.99
-10.22
-12.76
-15.79
-19.43
-23.72
-28.51
-33.35
-37.44
-39.75
-39.34
-35.73
-29.13
-20.38
-10.75
-1.43
6.68
13.15
17.86
20.79
21.94
21.33
19.16
15.89
12.29
9.15
7.10
6.30
6.52
7.25
8.01
8.58
9.04
9.58
10.30
11.04
11.49
11.31
10.30
8.54
6.30
3.88
1.47
-0.87
-3.21
-5.68
-8.40
-11.56
-15.35
-19.91
-25.23
-30.97
-36.38
-40.47
-42.19
-40.82
-36.16
-28.70
-19.44
-9.63
-0.40
7.51
13.77
18.41
21.62
23.56
24.27
23.75
22.12
19.73
17.13
15.01
13.87
13.90
14.90
16.42
17.90
18.99
19.56
19.62
19.26
18.53
17.40
15.83
13.82
11.41
8.70
5.77
2.74
-0.29
-3.15
-5.71
-7.94
-9.94
-11.94
-14.20
-16.98
-20.40
-24.46
-29.03
-33.72
-37.90
-40.73
-41.34
-39.09
-33.87
-26.11
-16.73
-6.81
2.70
11.12
18.13
23.55
27.27
29.25
29.55
28.41
26.28
23.70
21.24
19.34
18.27
18.09
18.64
19.60
20.53
21.07
20.95
20.17
18.88
17.29
15.58
13.79
11.89
9.82
7.59
5.27
2.96
0.70
-1.47
-3.60
-5.71
-7.76
-9.65
-11.28
-12.62
-13.82
-15.16
-17.08
-19.97
-23.98
-28.90
-34.05
-38.41
-40.85
-40.45
-36.80
-30.13
-21.22
-11.18
-1.17
7.84
15.22
20.64
24.02
25.50
25.31
23.87
21.69
19.30
17.19
15.74
15.13
15.34
16.16
17.23
18.21
18.84
19.10
19.10
19.04
18.99
18.87
18.45
17.51
15.98
14.01
11.85
9.72
7.68
5.59
3.21
0.38
-2.86
-6.28
-9.50
-12.25
-14.38
-16.01
-17.42
-18.96
-20.96
-23.66
-27.19
-31.44
-36.09
-40.50
-43.78
-44.96
-43.25
-38.43
-30.88
-21.60
-11.87
-2.90
4.52
10.10
13.92
16.29
17.48
17.68
17.04
15.75
14.15
12.65
11.64
11.37
11.85
12.81
13.91
14.83
15.36
15.46
15.18
14.56
13.57
12.14
10.22
7.90
5.35
2.82
0.52
-1.57
-3.56
-5.64
-7.89
-10.27
-12.61
-14.71
-16.46
-17.92
-19.30
-20.91
-23.04
-25.99
-29.79
-34.19
-38.54
-41.94
-43.40
-42.21
-38.20
-31.74
-23.64
-14.87
-6.32
1.44
8.04
13.37
17.38
20.12
21.68
22.20
21.94
21.23
20.43
19.89
19.81
20.21
20.95
21.73
22.29
22.48
22.26
21.71
20.88
19.76
18.27
16.33
13.97
11.34
8.70
6.29
4.27
2.64
1.25
-0.11
-1.64
-3.42
-5.40
-7.46
-9.43
-11.25
-12.96
-14.73
-16.84
-19.63
-23.33
-27.95
-33.20
-38.41
-42.69
-45.07
-44.82
-41.67
-35.87
-28.13
-19.37
-10.46
-2.10
5.30
11.51
16.41
19.91
21.96
22.68
22.35
21.40
20.31
19.49
19.15
19.30
19.78
20.40
21.03
21.60
22.13
22.58
22.85
22.86
22.45
21.56
20.16
18.25
15.87
13.12
10.15
7.14
4.29
1.71
-0.61
-2.81
-5.06
-7.48
-10.06
-12.60
-14.92
-16.85
-18.36
-19.56
-20.64
-21.88
-23.54
-25.90
-29.17
-33.33
-37.98
-42.35
-45.38
-46.02
-43.63
-38.13
-30.10
-20.58
-10.70
-1.48
6.46
12.73
17.22
19.93
20.99
20.67
19.48
18.03
16.95
16.64
17.14
18.23
19.49
20.58
21.34
21.86
22.30
22.73
23.09
23.18
22.81
21.92
20.56
18.92
17.16
15.37
13.57
11.77
10.00
8.28
6.61
4.89
2.97
0.68
-2.01
-5.03
-8.21
-11.36
-14.36
-17.15
-19.69
-21.90
-23.75
-25.26
-26.63
-28.23
-30.49
-33.66
-37.47
-41.20
-43.74
-43.99
-41.27
-35.61
-27.73
-18.77
-9.89
-2.00
4.50
9.54
13.28
15.84
17.30
17.68
17.11
15.86
14.32
12.96
12.17
12.14
12.87
14.18
15.82
17.51
19.01
20.18
20.91
21.15
20.95
20.39
19.60
18.67
17.65
16.51
15.15
13.49
11.53
9.36
7.20
5.17
3.32
1.51
-0.47
-2.77
-5.45
-8.32
-11.15
-13.67
-15.77
-17.51
-19.08
-20.74
-22.72
-25.23
-28.42
-32.34
-36.87
-41.64
-45.96
-48.89
-49.46
-46.98
-41.30
-32.95
-22.96
-12.58
-2.93
5.27
11.68
16.28
19.20
20.57
20.60
19.56
17.85
16.03
14.64
14.05
14.40
15.52
17.07
18.67
20.02
21.04
21.75
22.23
22.49
22.43
21.93
20.89
19.29
17.26
14.97
12.56
10.11
7.62
5.15
2.78
0.60
-1.25
-2.72
-3.89
-4.93
-6.05
-7.42
-9.14
-11.13
-13.22
-15.18
-16.84
-18.13
-19.22
-20.48
-22.40
-25.44
-29.83
-35.36
-41.29
-46.46
-49.68
-50.01
-47.08
-41.16
-33.08
-23.88
-14.56
-5.88
1.65
7.75
12.28
15.20
16.65
16.92
16.47
15.78
15.28
15.22
15.61
16.27
17.00
17.69
18.34
19.10
20.06
21.20
22.35
23.22
23.60
23.34
22.43
20.97
19.06
16.86
14.52
12.22
10.10
8.24
6.63
5.16
3.66
2.03
0.13
-2.09
-4.64
-7.47
-10.40
-13.26
-15.86
-18.17
-20.33
-22.65
-25.52
-29.24
-33.88
-39.19
-44.50
-48.87
-51.20
-50.51
-46.29
-38.69
-28.49
-17.00
-5.61
4.52
12.70
18.70
22.64
24.78
25.45
24.93
23.52
21.57
19.52
17.80
16.82
16.79
17.70
19.26
21.07
22.69
23.83
24.39
24.44
24.09
23.37
22.24
20.60
18.39
15.73
12.92
10.34
8.31
6.94
6.07
5.24
3.93
1.80
-1.24
-4.88
-8.62
-11.95
-14.59
-16.54
-18.10
-19.70
-21.87
-25.01
-29.29
-34.53
-40.05
-44.77
-47.43
-46.96
-42.90
-35.59
-26.05
-15.64
-5.60
3.27
10.65
16.51
20.91
23.81
25.08
24.73
23.03
20.55
18.10
16.45
16.07
16.99
18.81
20.89
22.57
23.42
23.31
22.37
20.89
19.10
17.16
15.05
12.65
9.86
6.66
3.18
-0.31
-3.55
-6.38
-8.82
-11.08
-13.52
-16.44
-20.11
-24.67
-30.08
-36.09
-42.20
-47.74
-51.85
-53.73
-52.79
-48.78
-41.94
-32.90
-22.65
-12.24
-2.68
5.32
11.38
15.45
17.72
18.46
17.96
16.50
14.42
12.12
10.01
8.42
7.48
7.14
7.27
7.68
8.23
8.74
9.00
8.73
7.67
5.70
2.92
-0.32
-3.66
-6.75
-9.47
-11.89
-14.26
-16.82
-19.89
-23.77
-28.63
-34.45
-40.86
-47.03
-51.80
-53.94
-52.56
-47.41
-39.01
-28.47
-17.11
-6.09
3.78
12.16
18.89
23.86
26.99
28.19
27.62
25.76
23.37
21.22
19.88
19.50
19.83
20.45
21.00
21.33
21.52
21.67
21.78
21.62
20.80
18.96
15.94
11.91
7.32
2.76
-1.35
-4.85
-7.88
-10.89
-14.39
-18.77
-24.21
-30.56
-37.33
-43.79
-48.91
-51.65
-51.10
-46.79
-38.90
-28.26
-16.15
-3.96
7.17
16.51
23.75
28.90
32.11
33.57
33.59
32.61
31.20
29.95
29.33
29.50
30.35
31.57
32.82
33.95
34.92
35.74
36.33
36.43
35.66
33.70
30.48
26.29
21.63
17.03
12.81
8.99
5.37
1.64
-2.33
-6.48
-10.57
-14.35
-17.66
-20.56
-23.32
-26.30
-29.95
-34.62
-40.57
-47.70
-55.46
-62.73
-67.88
-69.28
-65.74
-57.12
-44.35
-29.25
-13.88
0.16
12.03
21.58
29.00
34.44
37.82
39.11
38.51
36.73
34.78
33.64
33.83
35.24
37.31
39.32
40.79
41.68
42.21
42.69
43.17
43.50
43.34
42.42
40.73
38.48
36.02
33.65
31.48
29.42
27.28
24.88
22.13
19.13
15.97
12.85
9.82
6.93
4.12
1.31
-1.62
-4.73
-8.09
-11.61
-15.19
-18.70
-22.06
-25.40
-29.02
-33.29
-38.59
-45.05
-52.44
-60.06
-66.78
-71.21
-72.03
-68.34
-59.98
-47.61
-32.63
-16.72
-1.53
11.75
22.42
30.25
35.34
37.99
38.62
37.82
36.32
34.87
34.06
34.20
35.24
36.83
38.51
39.93
40.95
41.60
41.99
42.16
42.04
41.44
40.22
38.33
35.86
33.06
30.22
27.58
25.26
23.22
21.28
19.25
16.98
14.51
12.00
9.69
7.69
5.97
4.25
2.14
-0.69
-4.40
-8.85
-13.71
-18.53
-23.01
-27.05
-30.87
-34.83
-39.36
-44.77
-51.15
-58.23
-65.40
-71.69
-75.91
-76.83
-73.59
-65.93
-54.38
-40.18
-24.93
-10.17
2.88
13.51
21.36
26.34
28.57
28.37
26.33
23.37
20.47
18.49
17.83
18.43
19.79
21.33
22.62
23.43
23.70
23.42
22.39
20.40
17.30
13.23
8.60
4.00
-0.17
-3.83
-7.35
-11.38
-16.50
-22.97
-30.56
-38.64
-46.41
-53.21
-58.81
-63.50
-68.07
-73.41
-80.12
-87.91
-95.37
-100.10
-99.34
-90.91
-74.09
-50.17
-22.35
5.02
27.48
41.57
45.67
40.25
27.75
11.93
-3.15
-14.00
-18.38
-15.38
-5.04
12.30
36.29
66.60
102.35
141.61
181.24
217.28
245.70
263.39
268.79
262.25
246.03
223.77
199.68
177.44
159.13
144.72
132.38
119.58
104.39
86.31
66.42
46.59
28.54
13.10
0.27
-10.35
-19.00
-25.59
-29.93
-32.13
-32.81
-32.97
-33.63
-35.41
-38.30
-41.75
-44.96
-47.24
-48.28
-48.25
-47.69
-47.28
-47.59
-48.87
-50.99
-53.50
-55.86
-57.65
-58.72
-59.27
-59.70
-60.45
-61.78
-63.72
-66.16
-69.01
-72.25
-75.90
-79.83
-83.51
-86.03
-86.23
-83.13
-76.30
-66.06
-53.41
-39.63
-25.99
-13.45
-2.64
6.05
12.33
16.10
17.50
17.03
15.55
14.07
13.43
14.12
16.04
18.69
21.36
23.46
24.71
25.20
25.21
25.05
24.82
24.41
23.55
22.01
19.72
16.79
13.55
10.35
7.50
5.16
3.38
2.09
1.13
0.29
-0.65
-1.85
-3.35
-5.06
-6.84
-8.60
-10.39
-12.39
-14.87
-17.99
-21.72
-25.79
-29.79
-33.34
-36.29
-38.70
-40.87
-43.17
-45.97
-49.50
-53.77
-58.49
-62.98
-66.30
-67.38
-65.35
-59.75
-50.79
-39.20
-26.13
-12.81
-0.34
10.37
18.69
24.23
26.90
26.93
24.93
21.81
18.55
16.04
14.77
14.83
15.94
17.64
19.50
21.26
22.77
24.00
24.88
25.33
25.26
24.59
23.34
21.62
19.57
17.41
15.31
13.39
11.65
9.97
8.19
6.18
3.92
1.50
-0.96
-3.38
-5.77
-8.26
-10.97
-13.97
-17.20
-20.52
-23.72
-26.68
-29.31
-31.66
-33.88
-36.24
-39.09
-42.75
-47.43
-52.94
-58.66
-63.52
-66.18
-65.48
-60.78
-52.17
-40.52
-27.12
-13.40
-0.56
10.58
19.54
26.09
30.13
31.74
31.25
29.29
26.75
24.52
23.27
23.22
24.14
25.50
26.81
27.77
28.44
29.08
29.86
30.77
31.53
31.74
31.11
29.63
27.56
25.36
23.46
22.10
21.21
20.47
19.44
17.77
15.32
12.19
8.69
5.16
1.90
-1.00
-3.63
-6.18
-8.89
-11.84
-15.07
-18.43
-21.78
-24.94
-27.80
-30.35
-32.72
-35.15
-37.96
-41.47
-45.84
-50.92
-56.08
-60.28
-62.25
-60.85
-55.51
-46.43
-34.58
-21.40
-8.35
3.41
13.21
20.78
26.11
29.24
30.34
29.71
27.85
25.45
23.24
21.79
21.38
22.01
23.36
25.03
26.60
27.81
28.56
28.87
28.84
28.50
27.82
26.70
25.10
23.08
20.83
18.63
16.76
15.32
14.24
13.25
12.07
10.49
8.53
6.32
4.12
2.10
0.37
-1.11
-2.50
-4.01
-5.87
-8.27
-11.29
-14.88
-18.79
-22.68
-26.18
-29.10
-31.51
-33.79
-36.51
-40.12
-44.78
-50.08
-55.08
-58.46
-58.95
-55.65
-48.41
-37.90
-25.38
-12.39
-0.22
10.22
18.55
24.68
28.64
30.51
30.46
28.84
26.34
23.81
22.02
21.47
22.16
23.74
25.65
27.39
28.68
29.42
29.69
29.57
29.09
28.22
26.88
24.99
22.58
19.78
16.84
14.03
11.57
9.50
7.66
5.73
3.48
0.87
-1.92
-4.51
-6.60
-8.06
-9.11
-10.16
-11.63
-13.71
-16.28
-19.00
-21.45
-23.41
-24.94
-26.38
-28.15
-30.63
-34.09
-38.53
-43.75
-49.21
-54.13
-57.50
-58.34
-55.92
-50.02
-41.04
-29.92
-17.87
-6.14
4.21
12.50
18.35
21.74
22.90
22.26
20.40
17.91
15.41
13.43
12.37
12.47
13.72
15.90
18.59
21.31
23.58
25.07
25.64
25.33
24.34
22.85
21.09
19.23
17.38
15.62
14.01
12.56
11.29
10.14
9.05
7.92
6.60
4.96
2.93
0.48
-2.35
-5.46
-8.75
-12.07
-15.29
-18.22
-20.73
-22.79
-24.55
-26.35
-28.65
-31.93
-36.45
-42.16
-48.58
-54.71
-59.32
-61.14
-59.32
-53.69
-44.85
-33.98
-22.37
-11.14
-0.87
8.13
15.73
21.71
25.76
27.65
27.52
25.94
23.82
22.09
21.34
21.67
22.75
24.08
25.27
26.22
27.07
28.00
29.02
29.83
29.96
28.95
26.67
23.39
19.66
16.12
13.17
10.85
8.93
7.07
5.09
2.98
0.99
-0.60
-1.58
-1.97
-1.94
-1.81
-1.92
-2.55
-3.84
-5.78
-8.25
-11.05
-14.01
-17.09
-20.33
-23.94
-28.11
-32.95
-38.41
-44.17
-49.62
-53.94
-56.17
-55.46
-51.33
-43.87
-33.71
-21.93
-9.76
1.68
11.56
19.35
24.81
27.87
28.67
27.58
25.23
22.40
19.93
18.47
18.35
19.46
21.39
23.58
25.53
26.98
27.90
28.43
28.69
28.70
28.32
27.39
25.85
23.82
21.57
19.39
17.43
15.62
13.77
11.70
9.35
6.94
4.75
2.95
1.51
0.17
-1.45
-3.60
-6.29
-9.25
-12.08
-14.47
-16.26
-17.56
-18.59
-19.68
-21.18
-23.39
-26.66
-31.11
-36.58
-42.40
-47.42
-50.29
-49.82
-45.53
-37.77
-27.64
-16.65
-6.12
3.10
10.65
16.52
20.77
23.34
24.18
23.38
21.36
18.82
16.55
15.17
14.92
15.65
17.03
18.68
20.38
22.03
23.55
24.83
25.69
25.93
25.49
24.42
22.85
20.95
18.75
16.25
13.44
10.41
7.38
4.59
2.21
0.29
-1.30
-2.83
-4.54
-6.57
-8.92
-11.45
-13.92
-16.10
-17.90
-19.35
-20.68
-22.26
-24.49
-27.71
-32.07
-37.42
-43.26
-48.71
-52.74
-54.26
-52.51
-47.26
-38.93
-28.50
-17.23
-6.34
3.22
10.94
16.62
20.37
22.39
22.93
22.35
21.06
19.49
18.13
17.35
17.39
18.34
20.07
22.25
24.48
26.33
27.47
27.78
27.38
26.49
25.33
24.02
22.50
20.66
18.42
15.90
13.34
11.08
9.28
7.90
6.62
5.04
2.89
0.16
-2.89
-5.90
-8.60
-10.92
-12.93
-14.80
-16.65
-18.55
-20.62
-23.11
-26.42
-30.87
-36.42
-42.44
-47.78
-51.02
-50.95
-47.01
-39.48
-29.38
-18.15
-7.16
2.53
10.38
16.26
20.27
22.59
23.41
23.01
21.83
20.42
19.31
18.80
18.96
19.58
20.36
21.13
21.90
22.75
23.70
24.62
25.26
25.37
24.84
23.71
22.14
20.27
18.22
16.12
14.08
12.21
10.57
9.10
7.65
6.07
4.29
2.33
0.29
-1.79
-3.95
-6.33
-9.05
-12.12
-15.41
-18.73
-21.91
-25.05
-28.49
-32.67
-37.85
-43.77
-49.44
-53.45
-54.32
-51.15
-44.00
-33.84
-22.23
-10.71
-0.36
8.36
15.43
20.95
24.96
27.34
28.02
27.11
25.09
22.67
20.65
19.61
19.75
20.85
22.41
23.84
24.72
24.87
24.38
23.51
22.48
21.44
20.31
18.99
17.33
15.32
13.10
10.95
9.14
7.84
6.97
6.27
5.38
3.96
1.93
-0.58
-3.26
-5.74
-7.84
-9.56
-11.11
-12.74
-14.78
-17.45
-20.93
-25.31
-30.43
-35.92
-40.98
-44.61
-45.75
-43.66
-38.23
-30.01
-20.09
-9.77
-0.21
7.83
13.97
18.19
20.60
21.41
20.88
19.38
17.37
15.34
13.71
12.71
12.33
12.40
12.68
12.96
13.16
13.31
13.46
13.64
13.78
13.69
13.13
11.91
10.00
7.61
5.04
2.68
0.76
-0.65
-1.74
-2.82
-4.14
-5.84
-7.81
-9.83
-11.64
-13.11
-14.27
-15.34
-16.66
-18.60
-21.50
-25.55
-30.71
-36.52
-42.14
-46.36
-47.97
-46.10
-40.55
-31.90
-21.32
-10.20
0.22
9.09
15.98
20.85
23.76
24.96
24.74
23.53
21.79
20.01
18.57
17.63
17.20
17.11
17.15
17.18
17.13
17.04
16.91
16.72
16.36
15.72
14.72
13.33
11.65
9.82
8.04
6.49
5.23
4.12
2.94
1.39
-0.75
-3.47
-6.55
-9.64
-12.39
-14.71
-16.71
-18.76
-21.24
-24.53
-28.79
-34.01
-39.81
-45.48
-50.03
-52.32
-51.42
-46.84
-38.81
-28.24
-16.46
-4.80
5.66
14.34
21.04
25.81
28.77
30.11
30.07
29.03
27.47
25.89
24.61
23.73
23.20
22.86
22.62
22.47
22.49
22.69
22.95
23.08
22.85
22.05
20.59
18.59
16.20
13.66
11.19
8.87
6.67
4.43
1.95
-0.85
-3.93
-7.13
-10.24
-13.08
-15.61
-17.92
-20.27
-22.97
-26.38
-30.77
-36.16
-42.09
-47.64
-51.55
-52.50
-49.64
-42.88
-32.92
-21.11
-9.01
2.09
11.39
18.57
23.62
26.67
27.85
27.34
25.55
23.07
20.62
18.80
17.93
17.91
18.37
18.91
19.30
19.50
19.64
19.80
19.90
19.75
19.06
17.70
15.69
13.32
10.95
8.86
7.14
5.60
3.89
1.64
-1.33
-4.90
-8.71
-12.32
-15.48
-18.15
-20.51
-22.86
-25.51
-28.67
-32.53
-37.06
-41.89
-46.23
-48.85
-48.47
-44.18
-35.85
-24.28
-10.99
2.28
14.12
23.71
30.84
35.66
38.47
39.57
39.27
37.98
36.24
34.64
33.64
33.44
33.97
34.90
35.87
36.58
36.92
36.85
36.28
35.05
32.96
29.91
26.02
21.62
17.15
12.92
9.03
5.37
1.74
-1.92
-5.47
-8.64
-11.23
-13.18
-14.67
-16.03
-17.53
-19.31
-21.53
-24.34
-27.90
-32.29
-37.15
-41.67
-44.57
-44.61
-41.04
-33.99
-24.49
-14.07
-4.16
4.28
10.97
16.06
19.82
22.36
23.64
23.57
22.24
20.03
17.53
15.36
13.95
13.39
13.41
13.59
13.48
12.84
11.73
10.34
9.03
8.04
7.46
7.08
6.57
5.54
3.77
1.26
-1.72
-4.76
-7.47
-9.62
-11.25
-12.58
-13.97
-15.76
-18.25
-21.64
-26.00
-31.15
-36.61
-41.50
-44.64
-44.91
-41.64
-34.89
-25.50
-14.84
-4.31
5.02
12.61
18.33
22.19
24.22
24.36
22.73
19.72
16.09
12.70
10.27
9.12
9.05
9.56
10.07
10.16
9.71
8.88
7.96
7.18
6.59
5.98
4.99
3.27
0.65
-2.77
-6.60
-10.35
-13.65
-16.31
-18.44
-20.25
-22.09
-24.34
-27.41
-31.56
-36.78
-42.52
-47.64
-50.66
-50.19
-45.52
-36.91
-25.56
-13.17
-1.41
8.69
16.72
22.78
27.13
29.90
31.05
30.52
28.53
25.63
22.58
20.12
18.62
18.03
17.97
17.96
17.67
17.08
16.31
15.59
15.02
14.51
13.85
12.71
10.82
8.04
4.52
0.65
-3.01
-6.00
-8.13
-9.56
-10.83
-12.63
-15.60
-20.15
-26.28
-33.52
-40.84
-46.78
-49.80
-48.69
-43.02
-33.37
-21.16
-8.20
3.87
13.97
21.68
27.01
30.16
31.31
30.68
28.60
25.63
22.50
19.90
18.32
17.84
18.16
18.76
19.09
18.85
18.01
16.84
15.73
14.94
14.49
14.11
13.37
11.84
9.34
5.93
2.01
-1.90
-5.31
-7.95
-9.86
-11.38
-13.10
-15.63
-19.45
-24.76
-31.31
-38.30
-44.55
-48.61
-49.23
-45.67
-37.99
-27.14
-14.60
-2.05
9.09
17.96
24.30
28.27
30.23
30.60
29.68
27.82
25.38
22.84
20.74
19.49
19.26
19.89
20.92
21.79
22.09
21.72
20.94
20.09
19.48
19.12
18.73
17.92
16.30
13.75
10.36
6.48
2.51
-1.18
-4.34
-6.93
-9.01
-10.84
-12.81
-15.40
-19.07
-24.07
-30.19
-36.71
-42.31
-45.51
-45.08
-40.48
-32.17
-21.35
-9.61
1.59
11.27
18.97
24.55
28.10
29.74
29.65
28.09
25.50
22.39
19.27
16.57
14.58
13.38
12.79
12.54
12.26
11.71
10.85
9.88
9.09
8.68
8.58
8.46
7.85
6.43
4.19
1.42
-1.39
-3.80
-5.57
-6.86
-7.98
-9.34
-11.27
-13.97
-17.61
-22.29
-27.95
-34.21
-40.12
-44.36
-45.50
-42.60
-35.61
-25.46
-13.81
-2.37
7.52
15.27
20.81
24.43
26.35
26.68
25.48
22.96
19.55
15.91
12.70
10.36
9.02
8.50
8.43
8.50
8.51
8.46
8.39
8.32
8.13
7.62
6.52
4.67
2.11
-0.96
-4.22
-7.28
-9.91
-12.02
-13.68
-15.16
-16.82
-19.11
-22.51
-27.25
-33.29
-40.00
-46.23
-50.47
-51.32
-47.98
-40.53
-29.91
-17.63
-5.24
6.06
15.54
22.93
28.15
31.19
32.05
30.89
28.17
24.60
21.03
18.19
16.46
15.75
15.64
15.61
15.19
14.24
12.94
11.58
10.50
9.76
9.14
8.17
6.35
3.45
-0.38
-4.66
-8.75
-12.21
-14.88
-17.04
-19.15
-21.83
-25.64
-30.94
-37.78
-45.70
-53.66
-60.11
-63.36
-62.05
-55.69
-44.88
-31.10
-16.27
-2.16
10.02
19.74
26.90
31.65
34.14
34.55
33.11
30.27
26.70
23.18
20.41
18.83
18.53
19.20
20.32
21.36
22.02
22.28
22.33
22.32
22.18
21.48
19.76
16.61
12.11
6.75
1.29
-3.58
-7.49
-10.52
-13.15
-16.01
-19.74
-24.81
-31.42
-39.38
-47.96
-55.88
-61.54
-63.36
-60.28
-52.21
-40.09
-25.64
-10.81
2.81
14.31
23.44
30.34
35.13
37.84
38.42
37.03
34.23
30.94
28.14
26.52
26.20
26.78
27.55
27.85
27.34
26.04
24.21
22.17
20.12
18.12
16.07
13.79
11.09
7.87
4.13
0.05
-4.08
-7.98
-11.44
-14.47
-17.22
-20.02
-23.32
-27.57
-33.15
-40.15
-48.13
-55.98
-62.01
-64.36
-61.59
-53.28
-40.24
-24.28
-7.59
7.92
21.04
31.31
38.70
43.33
45.32
44.83
42.22
38.21
33.73
29.70
26.81
25.28
24.95
25.35
25.92
26.23
26.04
25.33
24.25
22.96
21.57
20.04
18.20
15.77
12.54
8.44
3.55
-1.81
-7.26
-12.36
-16.85
-20.64
-23.90
-26.93
-30.12
-33.95
-38.84
-45.04
-52.33
-59.82
-65.94
-68.80
-66.76
-59.03
-46.10
-29.58
-11.68
5.44
20.21
31.92
40.46
46.05
48.97
49.40
47.70
44.40
40.31
36.35
33.25
31.40
30.68
30.64
30.72
30.49
29.79
28.57
26.89
24.71
22.00
18.79
15.26
11.61
8.04
4.58
1.12
-2.44
-6.17
-10.05
-14.03
-18.10
-22.28
-26.54
-30.81
-35.03
-39.29
-43.95
-49.52
-56.23
-63.69
-70.61
-75.00
-74.88
-69.06
-57.67
-42.20
-24.89
-8.05
6.63
18.33
26.94
32.64
35.66
36.20
34.56
31.32
27.32
23.58
20.95
19.93
20.45
22.02
23.94
25.60
26.67
27.15
27.23
27.04
26.48
25.25
23.01
19.62
15.25
10.35
5.50
1.14
-2.57
-5.77
-8.80
-12.06
-15.96
-20.85
-26.99
-34.55
-43.32
-52.61
-61.15
-67.26
-69.26
-65.98
-57.14
-43.48
-26.57
-8.36
9.26
24.81
37.35
46.37
51.73
53.51
52.09
48.19
42.88
37.47
33.16
30.78
30.56
32.08
34.52
36.99
38.85
39.91
40.30
40.22
39.75
38.69
36.67
33.39
28.79
23.12
16.82
10.40
4.13
-1.88
-7.64
-13.32
-19.12
-25.33
-32.09
-39.22
-45.98
-51.10
-53.13
-50.86
-43.89
-32.74
-18.75
-3.61
11.02
23.84
33.95
40.78
44.09
43.95
40.80
35.44
28.92
22.23
16.18
11.24
7.63
5.43
4.60
5.07
6.58
8.54
10.17
10.64
9.37
6.18
1.37
-4.48
-10.64
-16.44
-21.28
-24.72
-26.67
-27.49
-28.05
-29.62
-33.26
-39.35
-47.02
-54.33
-58.74
-58.00
-51.00
-38.14
-21.19
-2.68
14.87
29.62
40.66
47.87
51.59
52.32
50.57
46.89
41.96
36.61
31.69
27.88
25.54
24.61
24.74
25.40
26.03
26.12
25.25
23.15
19.72
15.03
9.40
3.23
-3.03
-9.07
-14.73
-20.13
-25.60
-31.63
-38.71
-47.00
-56.12
-64.93
-71.63
-74.23
-71.18
-61.90
-47.15
-28.83
-9.38
8.85
24.17
35.72
43.40
47.55
48.68
47.39
44.21
39.71
34.54
29.35
24.80
21.39
19.42
18.80
19.11
19.67
19.78
18.93
16.96
14.06
10.64
7.16
3.86
0.74
-2.49
-6.33
-11.37
-18.08
-26.61
-36.48
-46.46
-54.65
-58.94
-57.64
-50.13
-37.17
-20.72
-3.33
12.66
25.63
34.97
40.82
43.67
43.97
42.02
38.05
32.45
25.86
19.23
13.55
9.61
7.68
7.44
8.12
8.76
8.63
7.48
5.56
3.43
1.56
0.16
-1.00
-2.40
-4.59
-8.02
-12.97
-19.56
-27.65
-36.80
-45.91
-53.38
-57.24
-55.82
-48.41
-35.63
-19.33
-1.97
14.09
27.30
36.97
43.14
46.11
46.13
43.43
38.36
31.61
24.17
17.23
11.75
8.28
6.79
6.77
7.41
7.91
7.67
6.48
4.52
2.12
-0.34
-2.74
-5.18
-7.96
-11.43
-15.91
-21.66
-28.81
-37.24
-46.36
-54.93
-61.16
-63.12
-59.45
-49.97
-35.74
-18.83
-1.57
14.12
27.10
36.96
43.63
47.18
47.62
45.09
40.05
33.35
26.19
19.77
14.98
12.08
10.70
10.03
9.18
7.58
5.13
2.19
-0.74
-3.31
-5.48
-7.59
-10.11
-13.50
-18.13
-24.28
-32.15
-41.57
-51.80
-61.39
-68.31
-70.53
-66.70
-56.71
-41.72
-23.81
-5.35
11.65
25.83
36.42
43.13
45.92
44.98
40.82
34.36
26.81
19.50
13.62
9.84
8.22
8.23
8.98
9.53
9.21
7.84
5.59
2.90
0.15
-2.58
-5.54
-9.16
-13.91
-20.07
-27.72
-36.65
-46.34
-55.81
-63.57
-67.77
-66.73
-59.49
-46.35
-28.93
-9.74
8.61
24.19
36.03
44.07
48.69
50.25
48.96
45.01
38.90
31.53
24.17
18.06
14.09
12.38
12.34
12.90
12.96
11.78
9.24
5.77
2.06
-1.28
-4.04
-6.41
-8.92
-12.26
-17.04
-23.61
-31.90
-41.28
-50.50
-57.80
-61.25
-59.25
-51.13
-37.52
-20.22
-1.73
15.51
29.72
40.06
46.57
49.75
50.25
48.64
45.44
41.13
36.30
31.59
27.63
24.87
23.46
23.19
23.52
23.76
23.22
21.49
18.49
14.51
10.03
5.53
1.30
-2.63
-6.41
-10.34
-14.75
-20.02
-26.49
-34.29
-43.02
-51.64
-58.48
-61.64
-59.56
-51.63
-38.56
-22.09
-4.51
12.04
26.03
36.76
44.13
48.39
49.90
49.06
46.36
42.39
37.94
33.81
30.70
28.95
28.48
28.76
29.03
28.62
27.23
25.02
22.52
20.24
18.36
16.56
14.21
10.70
5.87
0.11
-5.74
-10.87
-14.84
-17.78
-20.28
-23.12
-26.97
-32.24
-38.94
-46.66
-54.50
-61.01
-64.44
-63.10
-56.04
-43.50
-26.99
-8.90
8.26
22.59
33.21
40.17
44.05
45.53
45.15
43.29
40.35
36.84
33.42
30.67
28.98
28.39
28.63
29.24
29.75
29.80
29.25
28.16
26.67
24.93
22.96
20.71
18.04
14.86
11.19
7.13
2.83
-1.54
-5.82
-9.86
-13.48
-16.62
-19.27
-21.61
-23.98
-26.78
-30.45
-35.31
-41.37
-48.11
-54.47
-58.87
-59.66
-55.66
-46.62
-33.43
-17.87
-2.04
12.26
23.90
32.52
38.22
41.31
42.02
40.60
37.38
32.97
28.14
23.74
20.46
18.59
18.06
18.42
19.12
19.71
19.95
19.86
19.55
19.11
18.53
17.64
16.30
14.48
12.30
9.98
7.66
5.36
2.91
0.14
-3.05
-6.58
-10.24
-13.80
-17.19
-20.43
-23.65
-27.03
-30.80
-35.20
-40.41
-46.34
-52.36
-57.24
-59.39
-57.34
-50.40
-39.00
-24.69
-9.60
4.26
15.51
23.67
28.90
31.65
32.33
31.24
28.65
25.01
20.96
17.22
14.40
12.76
12.15
12.19
12.44
12.62
12.67
12.72
12.80
12.84
12.55
11.59
9.78
7.23
4.28
1.39
-1.15
-3.32
-5.41
-7.74
-10.49
-13.57
-16.68
-19.52
-21.96
-24.17
-26.49
-29.31
-32.98
-37.62
-43.15
-49.17
-54.88
-59.10
-60.50
-57.95
-50.98
-40.04
-26.44
-11.99
1.55
12.89
21.51
27.45
31.07
32.75
32.75
31.22
28.40
24.74
20.97
17.86
16.02
15.56
16.17
17.28
18.28
18.88
19.04
18.89
18.44
17.57
16.08
13.85
11.00
7.92
5.07
2.80
1.16
-0.13
-1.53
-3.44
-6.03
-9.12
-12.32
-15.21
-17.57
-19.47
-21.29
-23.56
-26.80
-31.34
-37.14
-43.66
-49.89
-54.45
-55.93
-53.31
-46.39
-35.80
-22.96
-9.50
3.05
13.68
21.83
27.36
30.33
30.97
29.73
27.22
24.25
21.57
19.76
18.97
19.03
19.57
20.16
20.52
20.57
20.38
20.09
19.73
19.21
18.34
16.94
14.95
12.47
9.77
7.13
4.74
2.66
0.79
-1.09
-3.18
-5.59
-8.30
-11.07
-13.55
-15.41
-16.56
-17.20
-17.91
-19.46
-22.55
-27.44
-33.83
-40.72
-46.69
-50.20
-50.07
-45.78
-37.65
-26.67
-14.39
-2.38
8.07
16.21
21.81
25.04
26.27
25.95
24.54
22.50
20.31
18.41
17.13
16.54
16.52
16.80
17.11
17.28
17.32
17.39
17.62
18.02
18.39
18.37
17.55
15.73
13.01
9.87
6.87
4.44
2.68
1.31
-0.15
-2.10
-4.60
-7.36
-9.94
-11.99
-13.46
-14.59
-15.84
-17.67
-20.40
-24.23
-29.18
-34.90
-40.66
-45.33
-47.53
-46.13
-40.72
-31.85
-20.93
-9.70
0.35
8.41
14.37
18.53
21.24
22.65
22.75
21.54
19.30
16.61
14.18
12.55
11.92
12.11
12.69
13.23
13.48
13.41
13.18
12.87
12.47
11.84
10.74
9.08
6.96
4.67
2.51
0.70
-0.74
-2.04
-3.54
-5.56
-8.20
-11.33
-14.58
-17.51
-19.82
-21.42
-22.54
-23.71
-25.60
-28.79
-33.48
-39.30
-45.23
-49.78
-51.42
-49.10
-42.61
-32.73
-20.90
-8.81
2.16
11.21
18.10
22.88
25.69
26.66
25.95
23.83
20.88
17.75
15.13
13.44
12.76
12.91
13.54
14.41
15.39
16.42
17.42
18.22
18.56
18.21
17.10
15.30
13.04
10.57
8.12
5.78
3.54
1.37
-0.85
-3.24
-5.92
-8.85
-11.91
-14.80
-17.22
-18.98
-20.18
-21.25
-22.92
-25.96
-30.86
-37.57
-45.21
-52.19
-56.63
-56.86
-52.19
-43.12
-31.12
-18.19
-6.02
4.41
12.93
19.71
24.94
28.51
30.13
29.66
27.45
24.29
21.22
19.10
18.29
18.62
19.55
20.50
21.17
21.54
21.85
22.35
23.04
23.64
23.69
22.82
20.84
17.97
14.67
11.44
8.59
6.16
3.93
1.53
-1.35
-4.79
-8.60
-12.35
-15.61
-18.05
-19.68
-20.87
-22.27
-24.60
-28.43
-33.83
-40.33
-46.85
-51.90
-54.03
-52.21
-46.11
-36.33
-24.18
-11.29
0.88
11.31
19.56
25.65
29.77
32.05
32.54
31.35
28.78
25.40
21.94
19.09
17.27
16.50
16.51
16.94
17.51
18.14
18.87
19.75
20.72
21.54
21.89
21.48
20.18
18.10
15.55
12.93
10.57
8.61
6.95
5.25
3.19
0.58
-2.56
-5.97
-9.31
-12.31
-14.90
-17.22
-19.56
-22.39
-26.14
-31.09
-37.17
-43.74
-49.61
-53.30
-53.46
-49.37
-41.25
-30.14
-17.60
-5.18
5.97
15.20
22.26
27.10
29.78
30.38
29.18
26.66
23.51
20.47
18.16
16.92
16.76
17.41
18.42
19.37
19.97
20.19
20.13
19.99
19.85
19.64
19.20
18.28
16.77
14.69
12.23
9.62
7.01
4.43
1.77
-1.08
-4.21
-7.47
-10.63
-13.42
-15.65
-17.36
-18.82
-20.48
-22.83
-26.39
-31.39
-37.69
-44.59
-50.85
-54.91
-55.34
-51.29
-42.86
-31.07
-17.55
-4.05
8.06
17.97
25.45
30.60
33.63
34.80
34.33
32.60
30.07
27.38
25.11
23.65
23.14
23.39
24.07
24.83
25.50
26.03
26.47
26.82
26.88
26.32
24.77
22.09
18.36
13.98
9.42
4.99
0.82
-3.22
-7.30
-11.46
-15.56
-19.28
-22.31
-24.54
-26.10
-27.44
-29.03
-31.36
-34.74
-39.09
-43.96
-48.43
-51.32
-51.45
-48.04
-41.00
-30.97
-19.19
-7.18
3.77
12.79
19.52
23.98
26.35
26.86
25.71
23.24
19.95
16.52
13.68
11.95
11.51
12.11
13.19
14.16
14.57
14.31
13.55
12.58
11.59
10.61
9.43
7.76
5.37
2.23
-1.51
-5.56
-9.61
-13.44
-16.98
-20.33
-23.74
-27.53
-32.06
-37.67
-44.48
-52.16
-59.81
-66.02
-69.15
-67.90
-61.72
-51.10
-37.42
-22.44
-7.88
5.09
15.85
24.20
30.13
33.66
34.81
33.75
30.95
27.16
23.32
20.28
18.61
18.38
19.25
20.61
21.89
22.72
23.01
22.96
22.71
22.34
21.68
20.41
18.20
14.87
10.54
5.53
0.28
-4.73
-9.26
-13.22
-16.81
-20.42
-24.56
-29.77
-36.37
-44.15
-52.34
-59.50
-63.87
-63.88
-58.64
-48.39
-34.38
-18.56
-2.93
10.96
22.32
30.95
37.05
40.82
42.40
41.93
39.62
36.04
32.00
28.43
26.04
25.19
25.73
27.18
28.89
30.30
31.05
31.01
30.19
28.66
26.47
23.71
20.41
16.65
12.52
8.08
3.46
-1.17
-5.62
-9.60
-12.95
-15.70
-18.07
-20.55
-23.68
-28.01
-33.83
-41.07
-49.12
-56.81
-62.51
-64.56
-61.78
-53.84
-41.52
-26.40
-10.49
4.48
17.36
27.65
35.33
40.51
43.27
43.73
42.23
39.40
36.12
33.28
31.50
30.90
31.16
31.74
32.14
32.22
32.13
32.25
32.83
33.81
34.75
34.96
33.86
31.21
27.26
22.66
18.13
14.19
10.93
8.03
4.97
1.33
-3.03
-7.87
-12.77
-17.28
-21.11
-24.26
-27.00
-29.82
-33.28
-38.00
-44.32
-52.21
-60.88
-68.90
-74.33
-75.32
-70.72
-60.52
-45.98
-29.17
-12.29
2.92
15.59
25.56
33.09
38.37
41.48
42.42
41.41
38.98
35.99
33.36
31.75
31.41
32.13
33.46
34.95
36.32
37.51
38.59
39.55
40.22
40.31
39.46
37.46
34.32
30.34
25.97
21.71
17.89
14.64
11.88
9.36
6.78
3.85
0.37
-3.73
-8.37
-13.32
-18.15
-22.45
-25.87
-28.34
-30.09
-31.66
-33.71
-36.86
-41.53
-47.78
-55.17
-62.77
-69.19
-72.84
-72.30
-66.80
-56.47
-42.32
-25.96
-9.21
6.38
19.71
30.21
37.64
42.03
43.57
42.66
39.94
36.22
32.48
29.52
27.91
27.86
29.21
31.44
33.89
35.97
37.23
37.57
37.06
35.99
34.62
33.11
31.48
29.59
27.29
24.49
21.29
17.91
14.61
11.57
8.81
6.15
3.36
0.19
-3.42
-7.41
-11.63
-15.82
-19.81
-23.45
-26.63
-29.36
-31.79
-34.35
-37.68
-42.50
-49.19
-57.41
-65.92
-72.73
-75.75
-73.47
-65.53
-52.86
-37.28
-20.87
-5.32
8.26
19.39
27.90
33.74
36.86
37.34
35.60
32.37
28.67
25.48
23.51
22.99
23.74
25.31
27.17
28.88
30.20
31.06
31.48
31.54
31.27
30.67
29.72
28.33
26.45
24.04
21.16
17.97
14.64
11.35
8.20
5.19
2.22
-0.88
-4.32
-8.27
-12.71
-17.49
-22.24
-26.58
-30.22
-33.14
-35.60
-38.08
-41.20
-45.60
-51.68
-59.43
-68.22
-76.64
-82.74
-84.47
-80.33
-69.94
-54.25
-35.26
-15.41
3.09
18.80
31.05
39.84
45.48
48.34
48.87
47.48
44.77
41.42
38.18
35.69
34.41
34.45
35.60
37.46
39.52
41.31
42.50
42.99
42.82
42.05
40.76
38.94
36.50
33.39
29.61
25.21
20.42
15.49
10.82
6.71
3.34
0.66
-1.70
-4.20
-7.23
-10.91
-15.04
-19.23
-23.10
-26.50
-29.49
-32.33
-35.35
-38.90
-43.40
-49.25
-56.66
-65.35
-74.27
-81.60
-85.21
-83.28
-75.02
-61.03
-43.11
-23.70
-5.11
11.07
24.11
33.94
40.84
45.06
46.74
46.16
43.85
40.68
37.74
35.93
35.68
36.80
38.70
40.66
42.15
42.96
43.10
42.69
41.81
40.51
38.78
36.71
34.34
31.67
28.61
25.02
20.86
16.27
11.61
7.31
3.66
0.67
-1.93
-4.55
-7.56
-11.10
-15.06
-19.14
-23.01
-26.48
-29.53
-32.38
-35.36
-38.85
-43.24
-48.87
-55.82
-63.86
-72.15
-79.21
-83.16
-82.20
-75.28
-62.54
-45.39
-26.14
-7.29
9.20
22.31
31.90
38.33
42.08
43.47
42.73
40.19
36.44
32.37
28.98
27.05
26.93
28.37
30.71
33.16
35.08
36.22
36.64
36.63
36.39
35.92
35.03
33.40
30.85
27.39
23.31
19.02
14.86
11.04
7.55
4.28
1.12
-1.99
-5.05
-8.07
-11.10
-14.22
-17.56
-21.16
-24.94
-28.79
-32.53
-36.11
-39.75
-43.96
-49.34
-56.31
-64.61
-73.06
-79.73
-82.42
-79.49
-70.41
-56.09
-38.55
-20.26
-3.33
10.95
22.20
30.59
36.43
39.86
40.84
39.45
36.08
31.63
27.31
24.25
23.13
23.93
26.04
28.55
30.65
31.92
32.33
32.19
31.81
31.38
30.80
29.76
27.87
24.90
20.89
16.22
11.48
7.23
3.84
1.31
-0.68
-2.65
-5.11
-8.38
-12.43
-16.93
-21.43
-25.48
-28.88
-31.70
-34.32
-37.33
-41.47
-47.40
-55.43
-65.27
-75.73
-84.78
-90.01
-89.34
-81.74
-67.70
-49.01
-28.27
-8.02
9.88
24.45
35.38
42.76
46.79
47.79
46.23
42.88
38.76
34.89
32.11
30.81
30.92
32.00
33.49
34.88
35.92
36.54
36.84
36.92
36.81
36.42
35.60
34.19
32.14
29.45
26.22
22.62
18.79
14.87
10.99
7.27
3.78
0.52
-2.60
-5.80
-9.32
-13.27
-17.64
-22.15
-26.50
-30.40
-33.82
-37.02
-40.54
-45.11
-51.40
-59.67
-69.44
-79.34
-87.20
-90.67
-87.90
-78.25
-62.57
-42.91
-21.92
-2.01
15.10
28.60
38.39
44.76
48.14
48.98
47.81
45.27
42.09
39.01
36.68
35.51
35.62
36.85
38.81
41.01
43.02
44.52
45.36
45.51
44.95
43.67
41.64
38.87
35.42
31.38
26.90
22.13
17.27
12.57
8.29
4.66
1.69
-0.88
-3.44
-6.50
-10.33
-14.89
-19.86
-24.79
-29.32
-33.21
-36.51
-39.42
-42.36
-45.88
-50.62
-57.02
-64.98
-73.57
-80.92
-84.76
-82.99
-74.56
-59.85
-40.66
-19.65
0.48
17.73
31.08
40.46
46.32
49.25
49.71
48.09
44.88
40.79
36.67
33.41
31.51
31.08
31.77
33.02
34.32
35.38
36.11
36.50
36.53
36.09
35.08
33.40
31.03
28.07
24.63
20.90
17.07
13.45
10.31
7.79
5.83
4.11
2.17
-0.42
-3.86
-7.98
-12.41
-16.70
-20.55
-23.93
-26.98
-29.99
-33.25
-37.07
-41.80
-47.80
-55.25
-63.74
-72.12
-78.53
-80.86
-77.53
-68.12
-53.62
-36.12
-18.02
-1.34
12.74
23.86
32.05
37.47
40.20
40.37
38.33
34.77
30.63
26.84
24.12
22.79
22.81
23.79
25.27
26.76
27.93
28.64
28.89
28.81
28.47
27.80
26.58
24.58
21.62
17.80
13.50
9.24
5.54
2.70
0.63
-1.10
-3.06
-5.69
-9.13
-13.20
-17.49
-21.60
-25.32
-28.65
-31.75
-34.84
-38.21
-42.22
-47.37
-54.13
-62.59
-72.01
-80.65
-86.09
-85.97
-78.97
-65.37
-47.06
-26.82
-7.33
9.57
23.14
33.48
40.97
45.86
48.20
48.05
45.77
42.11
38.10
34.75
32.68
32.05
32.50
33.47
34.43
35.09
35.45
35.66
35.85
35.93
35.64
34.56
32.34
28.91
24.50
19.67
15.08
11.28
8.46
6.38
4.52
2.24
-0.88
-4.96
-9.66
-14.46
-18.83
-22.44
-25.24
-27.53
-29.80
-32.65
-36.72
-42.56
-50.41
-59.88
-69.82
-78.27
-82.96
-81.92
-74.29
-60.66
-42.95
-23.74
-5.47
10.21
22.65
31.88
38.26
42.07
43.46
42.58
39.83
35.95
31.94
28.78
27.14
27.16
28.45
30.37
32.22
33.64
34.58
35.26
35.91
36.50
36.72
36.11
34.24
31.00
26.67
21.86
17.28
13.49
10.66
8.60
6.74
4.47
1.35
-2.71
-7.40
-12.15
-16.41
-19.88
-22.65
-25.15
-27.94
-31.61
-36.62
-43.27
-51.51
-60.73
-69.59
-76.11
-78.18
-74.24
-63.94
-48.46
-30.04
-11.34
5.49
19.20
29.49
36.63
41.00
42.93
42.67
40.58
37.27
33.56
30.30
28.16
27.45
28.01
29.35
30.86
32.08
32.82
33.24
33.54
33.84
33.93
33.32
31.49
28.20
23.68
18.59
13.82
10.02
7.34
5.34
3.21
0.17
-4.18
-9.68
-15.66
-21.33
-26.07
-29.71
-32.54
-35.14
-38.13
-42.08
-47.38
-54.16
-62.06
-70.16
-76.89
-80.31
-78.71
-71.19
-58.15
-41.14
-22.49
-4.48
11.22
23.76
32.99
39.09
42.31
42.91
41.24
37.90
33.76
29.77
26.76
25.19
24.99
25.72
26.81
27.80
28.56
29.20
29.90
30.63
31.04
30.58
28.78
25.55
21.32
16.80
12.72
9.44
6.82
4.35
1.44
-2.25
-6.75
-11.71
-16.67
-21.24
-25.20
-28.59
-31.73
-35.14
-39.52
-45.53
-53.51
-63.10
-73.00
-81.10
-84.99
-82.79
-73.86
-59.08
-40.64
-21.16
-3.00
12.41
24.54
33.54
39.68
43.21
44.28
43.15
40.37
36.75
33.20
30.41
28.77
28.26
28.59
29.41
30.42
31.50
32.60
33.64
34.40
34.48
33.48
31.18
27.71
23.54
19.26
15.31
11.80
8.40
4.67
0.29
-4.65
-9.75
-14.41
-18.22
-21.04
-23.13
-25.04
-27.48
-31.14
-36.63
-44.27
-53.69
-63.76
-72.47
-77.47
-76.73
-69.29
-55.73
-37.98
-18.65
-0.18
15.76
28.43
37.78
44.01
47.32
47.87
46.01
42.40
37.96
33.74
30.54
28.73
28.21
28.56
29.27
29.96
30.50
30.95
31.36
31.64
31.47
30.38
28.07
24.60
20.44
16.28
12.72
9.91
7.54
5.02
1.86
-2.11
-6.62
-11.18
-15.27
-18.65
-21.35
-23.72
-26.29
-29.77
-34.85
-41.88
-50.56
-59.64
-67.10
-70.64
-68.50
-60.12
-46.44
-29.55
-11.93
4.25
17.67
27.87
34.98
39.29
41.08
40.55
38.04
34.12
29.62
25.41
22.21
20.37
19.84
20.26
21.22
22.36
23.51
24.54
25.27
25.43
24.76
23.07
20.44
17.16
13.63
10.19
6.91
3.69
0.26
-3.56
-7.75
-12.11
-16.34
-20.18
-23.56
-26.65
-29.86
-33.76
-38.94
-45.85
-54.47
-64.07
-73.11
-79.44
-80.95
-76.20
-65.06
-48.82
-29.80
-10.61
6.60
20.53
30.84
37.74
41.65
42.92
41.88
38.94
34.74
30.12
25.96
22.97
21.44
21.32
22.21
23.60
25.05
26.25
26.98
27.08
26.45
25.04
22.93
20.34
17.51
14.60
11.62
8.45
4.93
1.01
-3.16
-7.38
-11.39
-15.10
-18.51
-21.76
-25.03
-28.60
-32.89
-38.48
-45.80
-54.73
-64.24
-72.37
-76.72
-75.28
-67.24
-53.39
-35.82
-17.15
0.31
15.11
26.77
35.37
41.16
44.29
44.90
43.28
40.02
35.98
32.10
29.15
27.49
27.07
27.57
28.57
29.72
30.80
31.70
32.26
32.27
31.49
29.74
27.02
23.52
19.53
15.37
11.19
6.98
2.61
-2.03
-6.91
-11.80
-16.37
-20.36
-23.70
-26.62
-29.58
-33.21
-38.14
-44.78
-53.10
-62.35
-71.09
-77.31
-78.93
-74.57
-64.04
-48.56
-30.37
-11.93
4.83
18.98
30.42
39.44
46.15
50.38
51.87
50.62
47.28
42.93
38.81
35.79
34.15
33.61
33.71
34.05
34.52
35.18
35.98
36.67
36.79
35.85
33.63
30.31
26.37
22.36
18.57
14.94
11.12
6.71
1.56
-4.17
-10.04
-15.59
-20.50
-24.70
-28.39
-31.93
-35.87
-40.80
-47.19
-55.06
-63.68
-71.45
-76.22
-75.89
-69.29
-56.63
-39.56
-20.63
-2.39
13.25
25.37
33.87
39.07
41.35
41.05
38.58
34.54
29.80
25.31
21.89
20.00
19.63
20.42
21.84
23.39
24.68
25.47
25.64
25.16
23.95
22.07
19.58
16.60
13.29
9.76
6.01
2.01
-2.27
-6.81
-11.49
-16.11
-20.51
-24.56
-28.31
-31.90
-35.65
-40.02
-45.57
-52.69
-61.28
-70.51
-78.61
-83.36
-82.64
-75.30
-61.59
-43.19
-22.73
-2.89
14.27
27.72
37.36
43.57
46.86
47.55
45.94
42.44
37.78
32.95
28.98
26.59
25.93
26.61
27.95
29.37
30.54
31.43
32.14
32.68
32.83
32.24
30.65
27.97
24.43
20.42
16.37
12.50
8.73
4.79
0.37
-4.66
-10.14
-15.63
-20.64
-24.84
-28.23
-31.24
-34.69
-39.50
-46.45
-55.68
-66.44
-76.96
-84.73
-87.21
-82.71
-70.99
-53.44
-32.62
-11.36
7.98
24.02
36.31
45.00
50.45
52.98
52.85
50.47
46.53
41.92
37.61
34.40
32.66
32.38
33.21
34.68
36.36
37.96
39.26
40.08
40.14
39.10
36.69
32.86
27.94
22.49
17.21
12.62
8.83
5.52
2.07
-2.09
-7.21
-13.05
-19.01
-24.43
-28.93
-32.62
-36.08
-40.18
-45.79
-53.42
-62.92
-73.39
-83.08
-89.75
-91.24
-86.10
-74.24
-56.97
-36.73
-16.31
1.94
16.60
27.20
33.99
37.47
38.19
36.67
33.58
29.81
26.27
23.77
22.70
22.98
24.12
25.56
26.94
28.11
29.18
30.21
31.12
31.59
31.27
29.94
27.66
24.73
21.52
18.23
14.87
11.17
6.84
1.70
-4.12
-10.23
-16.17
-21.59
-26.42
-31.03
-36.05
-42.23
-50.03
-59.31
-69.08
-77.50
-82.32
-81.51
-73.98
-60.03
-41.32
-20.40
0.11
18.13
32.53
43.01
49.79
53.23
53.62
51.24
46.55
40.32
33.70
27.92
24.05
22.58
23.37
25.64
28.36
30.60
31.84
32.11
31.74
31.11
30.36
29.27
27.39
24.30
19.82
14.12
7.70
1.13
-5.05
-10.58
-15.47
-19.86
-24.01
-28.20
-32.77
-38.17
-44.81
-52.79
-61.56
-69.75
-75.33
-76.21
-71.04
-59.77
-43.77
-25.33
-6.86
9.74
23.47
33.99
41.24
45.20
45.84
43.36
38.33
31.83
25.23
19.79
16.35
15.08
15.52
16.81
18.04
18.58
18.31
17.53
16.72
16.14
15.63
14.59
12.28
8.27
2.64
-3.94
-10.50
-16.25
-20.80
-24.37
-27.59
-31.29
-36.27
-43.05
-51.79
-62.10
-72.91
-82.48
-88.71
-89.61
-83.91
-71.56
-53.76
-32.69
-10.85
9.55
26.93
40.39
49.60
54.55
55.49
52.96
47.93
41.70
35.75
31.36
29.21
29.32
30.98
33.15
34.83
35.44
34.94
33.67
32.09
30.43
28.52
25.83
21.79
16.07
8.85
0.82
-7.13
-14.19
-20.00
-24.71
-28.90
-33.33
-38.75
-45.79
-54.74
-65.40
-76.81
-87.10
-93.81
-94.49
-87.65
-73.31
-53.22
-30.19
-7.25
13.29
30.21
43.28
52.70
58.69
61.39
60.92
57.77
52.86
47.40
42.61
39.33
37.89
38.05
39.31
40.98
42.45
43.21
42.90
41.34
38.60
34.91
30.65
26.16
21.64
17.04
12.26
7.14
1.69
-3.87
-9.29
-14.34
-18.96
-23.29
-27.64
-32.51
-38.44
-45.98
-55.42
-66.44
-77.80
-87.40
-92.66
-91.35
-82.38
-66.30
-45.16
-21.88
0.59
20.10
35.56
46.72
53.93
57.67
58.46
56.84
53.59
49.62
45.92
43.24
41.89
41.75
42.32
43.04
43.55
43.75
43.71
43.49
42.97
41.80
39.63
36.27
31.90
26.94
21.93
17.25
12.97
8.87
4.56
-0.27
-5.72
-11.62
-17.60
-23.21
-28.16
-32.38
-36.11
-39.91
-44.55
-50.78
-59.04
-69.02
-79.45
-88.11
-92.38
-90.06
-80.23
-63.65
-42.59
-20.04
1.37
20.00
35.31
47.43
56.52
62.42
64.78
63.49
59.17
53.20
47.36
43.14
41.29
41.55
43.06
44.81
46.14
46.94
47.43
47.85
48.16
47.99
46.75
43.99
39.64
34.05
27.88
21.87
16.58
12.12
8.23
4.34
-0.17
-5.62
-11.89
-18.51
-24.81
-30.18
-34.40
-37.66
-40.54
-43.81
-48.28
-54.62
-63.08
-73.32
-84.17
-93.66
-99.38
-99.06
-91.42
-76.62
-56.37
-33.38
-10.53
9.88
26.60
39.27
47.99
52.96
54.31
52.35
47.77
41.82
36.04
31.82
29.96
30.47
32.63
35.40
37.87
39.53
40.34
40.57
40.51
40.29
39.69
38.24
35.47
31.10
25.33
18.80
12.35
6.72
2.23
-1.34
-4.65
-8.44
-13.15
-18.77
-24.87
-30.80
-36.05
-40.49
-44.32
-48.08
-52.39
-57.90
-65.16
-74.34
-84.99
-95.77
-104.40
-108.13
-104.58
-92.66
-73.14
-48.50
-22.18
2.55
23.48
39.71
51.39
59.04
63.11
63.85
61.53
56.78
50.79
44.99
40.74
38.83
39.34
41.62
44.69
47.62
49.82
51.08
51.56
51.45
50.84
49.56
47.33
43.83
38.95
32.93
26.33
19.89
14.24
9.69
6.06
2.78
-0.86
-5.41
-11.03
-17.37
-23.73
-29.44
-34.02
-37.45
-40.21
-43.04
-46.85
-52.43
-60.30
-70.40
-81.85
-92.85
-100.81
-103.05
-97.57
-83.89
-63.28
-38.50
-12.85
10.75
30.41
45.46
56.00
62.53
65.47
65.21
62.23
57.29
51.49
45.99
41.86
39.62
39.25
40.20
41.67
42.87
43.33
42.95
41.95
40.72
39.51
38.31
36.80
34.50
31.01
26.22
20.45
14.33
8.56
3.68
-0.24
-3.56
-6.90
-10.83
-15.63
-21.12
-26.80
-32.06
-36.53
-40.18
-43.34
-46.54
-50.30
-55.07
-61.21
-68.91
-77.95
-87.48
-95.78
-100.49
-99.21
-90.45
-74.28
-52.48
-28.06
-4.23
16.56
33.07
45.14
53.13
57.39
58.10
55.50
50.18
43.35
36.60
31.44
28.74
28.54
30.15
32.58
35.02
37.08
38.77
40.23
41.48
42.27
42.22
40.86
37.92
33.44
27.73
21.38
15.04
9.34
4.56
0.61
-2.96
-6.80
-11.42
-17.01
-23.31
-29.75
-35.67
-40.61
-44.47
-47.56
-50.49
-54.04
-59.00
-65.97
-74.96
-85.17
-94.78
-101.24
-101.88
-94.81
-79.71
-58.03
-32.66
-6.98
16.05
34.59
47.98
56.50
60.83
61.75
59.95
56.14
51.10
45.74
40.99
37.60
35.90
35.77
36.66
37.86
38.82
39.30
39.39
39.36
39.34
39.20
38.47
36.59
33.19
28.27
22.30
16.06
10.36
5.75
2.27
-0.48
-3.18
-6.48
-10.70
-15.72
-21.08
-26.17
-30.54
-34.05
-36.97
-39.84
-43.39
-48.38
-55.39
-64.53
-75.09
-85.44
-93.15
-95.57
-90.68
-77.86
-58.22
-34.32
-9.35
13.73
32.91
47.34
57.06
62.54
64.31
62.85
58.74
52.83
46.25
40.23
35.81
33.48
33.07
33.94
35.30
36.56
37.47
38.05
38.31
38.08
36.96
34.51
30.56
25.37
19.57
13.97
9.17
5.35
2.23
-0.75
-4.19
-8.44
-13.47
-18.90
-24.21
-28.93
-32.79
-35.85
-38.47
-41.23
-44.92
-50.28
-57.75
-67.08
-77.00
-85.34
-89.54
-87.41
-78.05
-62.20
-42.08
-20.61
-0.47
16.53
29.63
38.87
44.57
47.08
46.67
43.78
39.14
33.83
28.99
25.56
23.91
23.87
24.87
26.20
27.35
28.06
28.32
28.13
27.42
25.98
23.63
20.34
16.32
12.02
7.86
4.13
0.77
-2.59
-6.44
-11.09
-16.51
-22.26
-27.74
-32.47
-36.34
-39.72
-43.33
-48.02
-54.53
-63.14
-73.46
-84.11
-92.88
-97.09
-94.35
-83.52
-65.23
-41.87
-16.83
6.52
25.78
39.99
49.32
54.56
56.54
55.86
52.95
48.34
42.77
37.21
32.58
29.54
28.32
28.71
30.23
32.30
34.42
36.23
37.43
37.80
37.16
35.44
32.70
29.13
24.99
20.48
15.61
10.26
4.24
-2.51
-9.81
-17.20
-24.17
-30.27
-35.41
-39.84
-44.11
-48.98
-55.19
-63.24
-73.02
-83.51
-92.74
-98.12
-97.13
-88.27
-71.73
-49.42
-24.46
-0.18
20.84
37.22
48.75
55.94
59.49
60.07
58.19
54.47
49.64
44.59
40.21
37.15
35.70
35.74
36.81
38.32
39.66
40.34
40.09
38.79
36.51
33.38
29.56
25.24
20.60
15.70
10.60
5.28
-0.28
-6.05
-11.91
-17.63
-22.96
-27.64
-31.57
-34.87
-38.01
-41.79
-47.15
-54.83
-64.83
-76.09
-86.40
-92.87
-92.79
-84.56
-68.41
-46.37
-21.68
2.25
22.79
38.63
49.65
56.47
59.81
60.22
58.02
53.64
47.82
41.63
36.23
32.53
30.86
31.01
32.39
34.32
36.24
37.74
38.50
38.23
36.71
33.88
29.95
25.38
20.68
16.19
11.91
7.57
2.80
-2.55
-8.34
-14.13
-19.52
-24.27
-28.48
-32.50
-36.88
-42.21
-49.00
-57.58
-67.71
-78.34
-87.51
-92.65
-91.37
-82.31
-65.86
-44.05
-20.05
2.94
22.55
37.57
47.88
53.90
56.20
55.25
51.59
45.96
39.40
33.10
28.08
24.96
23.76
24.08
25.25
26.65
27.83
28.53
28.65
28.09
26.83
24.80
22.04
18.64
14.69
10.28
5.39
0.03
-5.79
-11.86
-17.84
-23.37
-28.17
-32.28
-35.98
-39.85
-44.56
-50.75
-58.90
-68.99
-80.31
-91.21
-99.28
-101.80
-96.72
-83.32
-62.77
-37.81
-11.90
11.83
31.35
46.00
56.04
62.12
64.77
64.35
61.16
55.89
49.58
43.56
39.01
36.56
36.21
37.37
39.24
41.13
42.62
43.54
43.80
43.28
41.76
39.11
35.33
30.71
25.67
20.65
15.83
11.14
6.30
1.00
-4.91
-11.29
-17.80
-24.00
-29.58
-34.47
-38.94
-43.55
-49.07
-56.24
-65.48
-76.49
-87.96
-97.57
-102.45
-100.10
-89.21
-70.32
-45.75
-18.89
6.79
28.68
45.42
56.77
63.23
65.53
64.43
60.75
55.48
49.76
44.77
41.42
40.08
40.59
42.31
44.49
46.48
47.99
49.00
49.64
49.89
49.47
47.93
44.84
40.10
34.07
27.52
21.26
15.84
11.28
7.08
2.60
-2.67
-8.77
-15.28
-21.49
-26.82
-31.06
-34.44
-37.63
-41.47
-46.79
-54.19
-63.73
-74.75
-85.67
-94.12
-97.47
-93.56
-81.54
-62.29
-38.31
-12.87
10.85
30.67
45.60
55.64
61.26
63.03
61.45
57.15
51.07
44.45
38.58
34.46
32.39
32.02
32.59
33.29
33.70
33.80
33.82
33.94
34.01
33.53
31.92
28.81
24.25
18.77
13.09
7.82
3.17
-1.08
-5.36
-10.15
-15.60
-21.51
-27.43
-32.87
-37.47
-41.29
-44.69
-48.39
-53.23
-59.96
-68.91
-79.62
-90.62
-99.53
-103.57
-100.48
-89.29
-70.82
-47.44
-22.37
1.36
21.63
37.43
48.68
55.68
58.80
58.37
54.92
49.29
42.73
36.68
32.31
30.26
30.46
32.25
34.72
37.07
38.85
39.94
40.39
40.17
39.09
36.85
33.22
28.29
22.48
16.44
10.74
5.62
0.90
-3.93
-9.34
-15.53
-22.25
-28.95
-34.99
-40.00
-44.00
-47.48
-51.25
-56.27
-63.31
-72.69
-83.82
-95.07
-103.85
-107.25
-102.90
-89.90
-69.23
-43.54
-16.31
9.24
30.84
47.50
59.17
66.30
69.36
68.87
65.44
60.03
53.91
48.44
44.72
43.15
43.47
44.89
46.47
47.56
47.94
47.78
47.28
46.44
44.96
42.40
38.46
33.24
27.26
21.25
15.88
11.40
7.64
4.07
0.01
-4.97
-10.96
-17.58
-24.15
-30.02
-34.77
-38.48
-41.73
-45.50
-50.84
-58.54
-68.75
-80.61
-92.21
-100.82
-103.60
-98.47
-84.83
-63.91
-38.43
-11.78
12.87
33.36
48.75
59.07
64.89
66.86
65.60
61.73
56.09
49.82
44.24
40.54
39.30
40.38
42.88
45.62
47.66
48.69
48.98
49.06
49.22
49.21
48.37
45.96
41.63
35.68
28.91
22.29
16.53
11.80
7.73
3.59
-1.30
-7.29
-14.24
-21.53
-28.34
-33.98
-38.21
-41.36
-44.23
-47.87
-53.20
-60.75
-70.41
-81.19
-91.27
-98.21
-99.51
-93.37
-79.40
-58.90
-34.59
-9.73
12.72
30.89
44.12
52.63
57.03
57.84
55.54
50.66
44.05
36.92
30.63
26.31
24.45
24.85
26.71
29.04
31.06
32.45
33.29
33.74
33.86
33.40
31.90
28.97
24.55
19.04
13.15
7.60
2.80
-1.34
-5.28
-9.62
-14.78
-20.74
-27.05
-33.07
-38.20
-42.22
-45.38
-48.33
-51.94
-57.14
-64.50
-74.02
-84.84
-95.09
-102.16
-103.31
-96.60
-81.68
-60.05
-34.67
-9.06
13.78
32.10
45.42
54.12
58.82
60.03
58.11
53.54
47.22
40.47
34.73
31.10
29.96
30.97
33.25
35.84
38.04
39.63
40.67
41.26
41.26
40.29
37.90
33.85
28.39
22.23
16.22
11.04
6.79
3.04
-0.95
-5.84
-11.83
-18.59
-25.38
-31.50
-36.56
-40.69
-44.43
-48.67
-54.35
-62.24
-72.54
-84.54
-96.37
-105.17
-107.82
-101.99
-87.05
-64.45
-37.39
-9.69
15.33
35.62
50.59
60.56
66.15
67.89
66.19
61.66
55.31
48.53
42.79
39.11
37.78
38.36
39.95
41.72
43.15
44.14
44.76
45.02
44.62
43.09
40.01
35.30
29.35
22.87
16.60
11.06
6.32
2.06
-2.27
-7.11
-12.65
-18.65
-24.67
-30.16
-34.82
-38.77
-42.55
-47.03
-53.14
-61.54
-72.19
-84.04
-94.96
-102.12
-102.74
-95.02
-78.89
-56.10
-29.78
-3.44
19.98
38.77
52.41
61.21
65.73
66.52
64.09
59.23
53.05
46.93
42.18
39.61
39.25
40.51
42.47
44.33
45.69
46.49
46.85
46.69
45.78
43.74
40.34
35.71
30.31
24.78
19.65
15.15
11.07
6.96
2.30
-3.23
-9.57
-16.28
-22.71
-28.26
-32.63
-35.99
-38.94
-42.44
-47.49
-54.77
-64.33
-75.19
-85.44
-92.44
-93.63
-87.29
-73.19
-52.84
-29.02
-5.02
16.33
33.25
45.12
52.23
55.21
54.78
51.55
46.29
39.91
33.60
28.51
25.49
24.82
26.18
28.81
31.82
34.49
36.37
37.27
37.13
35.89
33.50
29.99
25.56
20.55
15.37
10.33
5.48
0.62
-4.56
-10.27
-16.43
-22.67
-28.44
-33.30
-37.17
-40.33
-43.42
-47.27
-52.68
-60.19
-69.74
-80.37
-90.17
-96.57
-96.96
-89.69
-74.69
-53.64
-29.46
-5.37
16.04
33.31
46.01
54.32
58.58
59.11
56.34
51.03
44.32
37.58
32.09
28.66
27.46
28.07
29.77
31.80
33.61
34.90
35.55
35.46
34.48
32.41
29.17
24.89
19.98
14.94
10.19
5.83
1.63
-2.85
-7.94
-13.68
-19.76
-25.64
-30.84
-35.18
-38.90
-42.58
-46.98
-52.90
-60.86
-70.88
-82.07
-92.60
-99.78
-100.87
-93.89
-78.54
-56.43
-30.70
-4.94
17.82
35.83
48.71
56.94
61.25
62.27
60.47
56.44
51.02
45.33
40.50
37.35
36.20
36.84
38.74
41.28
43.90
46.17
47.74
48.27
47.49
45.23
41.55
36.67
30.95
24.82
18.58
12.39
6.24
0.04
-6.29
-12.69
-18.96
-24.79
-29.92
-34.19
-37.75
-41.08
-44.96
-50.31
-57.83
-67.56
-78.47
-88.42
-94.57
-94.14
-85.52
-68.85
-46.19
-20.81
3.79
24.93
41.21
52.42
59.06
61.87
61.49
58.54
53.76
48.14
42.72
38.41
35.75
34.75
35.06
36.14
37.50
38.78
39.78
40.34
40.25
39.27
37.14
33.79
29.41
24.47
19.48
14.88
10.78
6.97
3.02
-1.42
-6.44
-11.80
-17.01
-21.65
-25.53
-28.88
-32.22
-36.23
-41.58
-48.68
-57.53
-67.45
-76.97
-83.93
-85.97
-81.32
-69.52
-51.81
-30.74
-9.45
9.46
24.54
35.50
42.75
46.78
47.80
45.90
41.35
34.95
27.96
21.79
17.50
15.51
15.55
16.84
18.53
19.88
20.47
20.13
18.91
16.97
14.47
11.54
8.14
4.15
-0.59
-6.13
-12.27
-18.52
-24.29
-29.03
-32.50
-34.89
-36.79
-39.00
-42.34
-47.45
-54.64
-63.70
-73.80
-83.36
-90.16
-91.86
-86.66
-74.07
-55.17
-32.43
-8.93
12.54
30.21
43.44
52.37
57.40
58.84
56.90
51.90
44.66
36.52
29.08
23.75
21.29
21.59
23.75
26.50
28.67
29.55
29.06
27.57
25.59
23.46
21.06
17.96
13.62
7.71
0.38
-7.77
-15.87
-23.06
-28.93
-33.53
-37.48
-41.66
-47.01
-54.20
-63.47
-74.41
-85.84
-95.85
-102.05
-102.18
-94.81
-79.91
-59.02
-34.85
-10.49
11.45
29.40
42.84
52.03
57.50
59.75
59.27
56.66
52.82
48.84
45.80
44.47
45.01
46.96
49.50
51.75
53.14
53.56
53.27
52.66
51.86
50.62
48.34
44.36
38.39
30.68
22.06
13.61
6.22
0.28
-4.49
-8.81
-13.59
-19.64
-27.46
-37.12
-48.15
-59.46
-69.32
-75.59
-76.23
-69.95
-56.79
-38.23
-16.79
4.64
23.71
39.04
50.21
57.46
61.22
61.81
59.49
54.75
48.46
41.89
36.47
33.33
32.95
34.97
38.43
42.14
45.23
47.39
48.95
50.58
52.89
56.09
59.92
63.84
67.31
70.11
72.37
74.39
76.34
78.12
79.20
78.77
75.95
70.09
61.08
49.47
36.58
24.62
16.59
15.71
24.45
43.49
71.03
103.02
134.04
158.51
171.97
171.85
157.53
129.83
90.60
42.33
-12.15
-70.35
-130.88
-192.85
-254.85
-314.19
-367.01
-409.01
-436.67
-448.07
-443.38
-425.11
-396.08
-358.09
-311.90
-258.23
-198.74
-135.68
-71.06
-6.49
55.34
111.97
161.68
203.61
236.93
260.24
271.73
269.83
253.23
220.03
170.81
110.14
45.91
-13.54
-62.54
-98.87
-122.76
-123.46
-95.14
-42.27
21.19
81.07
129.59
164.45
184.93
194.90
197.07
191.54
178.41
159.03
135.78
113.23
93.94
78.71
67.32
58.70
50.89
43.51
38.45
39.05
47.69
63.52
83.02
101.82
116.27
124.22
126.41
126.05
127.35
133.61
145.63
161.93
179.73
195.56
206.01
208.98
204.09
192.52
175.97
155.59
131.79
104.50
73.57
39.21
2.41
-35.19
-71.41
-104.00
-130.94
-150.59
-162.01
-165.55
-163.10
-157.89
-153.60
-152.87
-155.99
-160.37
-161.25
-153.53
-134.08
-103.43
-66.03
-28.65
2.09
22.13
30.82
30.14
22.88
11.12
-4.05
-21.61
-39.53
-54.55
-63.36
-64.50
-59.46
-52.07
-46.43
-44.75
-46.73
-50.66
-55.46
-61.76
-71.36
-85.47
-103.20
-121.58
-137.24
-148.52
-156.52
-164.35
-175.02
-189.63
-206.87
-224.02
-238.83
-250.60
-260.18
-268.92
-277.50
-285.47
-291.63
-294.89
-294.96
-292.61
-289.13
-285.57
-282.16
-278.30
-273.07
-265.78
-256.34
-245.22
-233.19
-221.09
-209.82
-200.40
-193.83
-190.47
-189.38
-188.09
-183.28
-172.31
-154.56
-131.97
-108.10
-86.53
-68.84
-53.93
-39.02
-21.45
-0.78
21.14
41.33
57.32
68.55
76.94
86.17
100.33
122.50
153.57
192.75
238.29
288.22
340.14
392.01
442.12
488.98
531.17
566.13
590.95
602.87
599.68
578.88
540.30
487.31
426.48
366.07
311.08
263.93
224.98
192.89
162.72
130.59
95.87
61.14
31.87
9.42
-5.39
-11.44
-8.94
-4.82
-6.98
-20.18
-44.53
-73.84
-106.31
-139.67
-170.94
-199.71
-234.75
-285.55
-355.96
-442.02
-530.78
-615.83
-692.23
-756.27
-764.13
-692.74
-556.54
-398.99
-286.92
-215.50
-171.01
-144.55
-123.14
-104.86
-96.68
-103.27
-121.72
-142.27
-150.44
-143.50
-124.03
-96.23
-65.76
-41.50
-28.75
-26.25
-27.20
-20.82
-4.97
18.93
48.52
80.16
108.03
128.14
140.27
147.61
156.13
167.02
179.97
194.66
209.95
223.12
231.54
233.68
229.70
221.99
212.05
201.92
194.00
189.68
188.27
187.29
182.99
171.24
148.81
113.58
66.44
11.93
-42.72
-89.37
-121.54
-136.26
-134.56
-120.97
-101.96
-84.27
-73.37
-72.19
-80.44
-94.65
-109.41
-119.28
-120.93
-114.05
-100.70
-83.51
-63.86
-41.48
-15.48
13.74
43.36
68.76
85.75
92.86
92.46
89.64
89.78
95.79
106.94
119.59
129.80
135.88
139.56
144.74
155.04
171.07
189.61
204.86
210.82
203.46
181.74
147.42
104.63
59.50
19.67
-7.05
-15.13
-4.04
20.60
48.79
70.38
79.77
78.18
72.28
69.89
75.37
87.63
101.43
110.99
113.41
109.81
103.85
98.84
95.59
92.16
85.43
73.41
56.74
38.57
23.07
13.48
10.68
13.11
17.66
21.10
21.22
17.37
10.24
1.28
-7.90
-15.89
-21.71
-24.72
-24.53
-20.89
-13.55
-2.40
12.42
30.27
49.83
69.18
86.18
99.05
106.80
109.39
107.53
102.31
94.77
85.71
75.72
65.33
55.04
45.29
36.36
28.22
20.68
13.38
6.08
-1.28
-8.61
-15.76
-22.61
-29.19
-35.64
-42.18
-49.11
-56.75
-65.26
-74.48
-83.58
-91.12
-95.27
-94.50
-88.08
-76.53
-61.45
-44.96
-29.03
-14.88
-2.94
6.95
15.03
21.37
25.83
28.28
28.86
28.11
26.93
26.26
26.82
28.80
31.84
35.18
37.98
39.57
39.74
38.78
37.35
36.34
36.45
38.00
40.66
43.62
45.79
46.20
44.22
39.62
32.47
23.08
12.06
0.36
-10.79
-20.27
-27.54
-32.94
-37.55
-42.59
-48.61
-55.08
-60.64
-63.86
-64.14
-61.98
-58.73
-55.74
-53.75
-52.58
-51.53
-49.88
-47.37
-44.24
-40.92
-37.75
-34.79
-31.87
-28.81
-25.57
-22.29
-19.31
-17.05
-16.05
-16.95
-20.29
-26.29
-34.46
-43.50
-51.46
-56.27
-56.28
-50.76
-39.97
-25.03
-7.48
11.02
28.99
45.13
58.36
67.81
72.93
73.55
70.04
63.26
54.43
44.94
36.06
28.71
23.31
19.74
17.53
16.02
14.68
13.23
11.62
10.02
8.53
7.14
5.63
3.74
1.22
-2.04
-6.09
-10.99
-16.83
-23.59
-30.85
-37.64
-42.50
-43.95
-41.05
-33.84
-23.32
-10.99
1.70
13.78
24.79
34.40
42.14
47.39
49.58
48.74
45.61
41.53
37.86
35.40
34.13
33.36
32.26
30.30
27.49
24.23
20.93
17.78
14.68
11.42
7.95
4.45
1.31
-1.03
-2.12
-1.35
2.11
9.15
20.24
34.88
51.28
66.74
78.59
85.13
86.30
83.48
78.83
74.53
72.11
72.19
74.25
76.75
77.58
74.82
67.57
56.29
42.71
29.02
17.01
7.65
1.12
-2.66
-3.85
-2.77
-0.39
1.47
0.62
-4.56
-14.11
-26.26
-38.20
-47.29
-52.11
-52.79
-50.51
-46.78
-42.92
-39.76
-37.76
-37.10
-37.67
-38.91
-39.82
-39.22
-36.21
-30.60
-22.95
-14.41
-6.18
0.91
6.53
10.85
14.28
17.42
20.76
24.69
29.29
34.31
39.25
43.52
46.71
48.78
50.25
52.08
55.34
60.66
67.74
75.14
80.57
81.53
76.21
63.96
45.36
21.94
-4.38
-31.74
-58.56
-83.71
-106.65
-127.44
-146.46
-163.81
-178.69
-189.17
-192.72
-187.31
-172.34
-149.02
-119.82
-87.50
-54.33
-21.83
8.88
36.61
59.90
77.34
87.93
91.49
88.64
80.68
69.27
56.22
43.16
31.24
20.87
11.66
2.64
-7.26
-18.72
-31.95
-46.76
-62.77
-79.66
-97.02
-114.26
-130.63
-145.44
-158.42
-169.95
-180.85
-191.81
-202.59
-211.52
-215.71
-211.97
-198.07
-173.86
-141.43
-104.43
-66.77
-31.36
0.45
28.63
53.67
75.83
94.88
110.39
122.29
131.26
138.65
145.92
154.01
162.83
171.33
177.97
181.43
181.26
177.93
172.44
165.46
156.77
145.20
129.28
108.32
83.28
56.66
31.61
10.64
-5.25
-16.52
-24.17
-28.95
-31.03
-30.45
-27.86
-24.85
-23.50
-25.47
-31.04
-39.03
-47.39
-54.27
-58.70
-60.82
-61.38
-61.14
-60.45
-59.32
-57.58
-55.22
-52.46
-49.66
-47.20
-45.28
-43.91
-42.85
-41.80
-40.41
-38.44
-35.74
-32.27
-28.13
-23.47
-18.54
-13.63
-9.07
-5.19
-2.31
-0.65
-0.32
-1.21
-2.94
-4.97
-6.67
-7.59
-7.49
-6.40
-4.49
-1.95
1.08
4.47
7.96
11.09
13.35
14.45
14.45
13.78
12.76
11.23
8.29
2.78
-5.75
-16.25
-25.88
-30.93
-28.35
-17.31
0.30
20.35
37.84
48.32
48.94
38.87
19.50
-5.53
-30.69
-49.65
-57.05
-50.56
-32.09
-7.45
15.57
29.79
30.90
18.53
-3.97
-30.59
-54.33
-68.79
-69.78
-56.41
-31.45
-0.50
29.69
53.27
66.84
69.76
63.58
50.90
34.44
16.64
-0.34
-14.70
-25.19
-31.43
-34.10
-34.62
-34.57
-35.09
-36.53
-38.40
-39.84
-40.03
-38.55
-35.56
-31.71
-27.93
-25.10
-23.71
-23.76
-24.68
-25.68
-26.08
-25.67
-24.87
-24.51
-25.35
-27.61
-30.68
-33.27
-33.94
-31.71
-26.52
-19.29
-11.55
-4.81
-0.02
2.75
4.18
5.30
7.02
9.83
13.82
18.80
24.48
30.53
36.46
41.49
44.69
45.14
42.40
36.64
28.62
19.37
9.76
0.32
-8.79
-17.46
-25.39
-31.99
-36.65
-39.00
-39.21
-37.94
-36.15
-34.78
-34.42
-35.26
-37.00
-38.98
-40.32
-40.12
-37.70
-32.79
-25.77
-17.44
-8.92
-1.26
4.88
9.28
12.08
13.60
14.11
13.74
12.56
10.70
8.40
6.08
4.19
3.05
2.75
3.12
3.94
5.19
7.32
11.16
17.63
27.13
39.16
52.20
63.94
71.99
74.39
70.00
58.36
39.55
14.18
-16.22
-48.68
-78.94
-102.26
-114.97
-115.89
-106.79
-91.70
-75.18
-60.70
-49.71
-41.90
-36.16
-31.55
-27.75
-24.81
-22.69
-20.95
-18.87
-15.86
-11.72
-6.66
-1.19
4.17
8.93
12.76
15.46
17.06
17.92
18.70
20.05
22.41
25.66
29.27
32.47
34.76
36.05
36.54
36.34
35.26
32.80
28.58
22.87
16.68
11.49
8.56
8.37
10.47
13.79
17.25
20.22
22.67
24.86
27.02
29.03
30.50
30.96
30.14
28.02
24.82
20.87
16.45
11.90
7.62
4.20
2.27
2.36
4.59
8.55
13.30
17.59
20.31
20.88
19.43
16.77
13.98
11.94
10.92
10.30
8.78
4.74
-3.25
-15.91
-32.97
-53.05
-73.80
-92.28
-105.50
-111.10
-107.87
-96.14
-77.71
-55.57
-33.33
-14.47
-1.76
3.34
0.81
-8.01
-20.70
-34.19
-45.20
-50.69
-48.38
-37.38
-18.77
4.29
27.29
45.61
56.12
58.13
53.26
44.30
33.76
22.80
11.28
-1.50
-15.66
-29.88
-41.48
-47.37
-45.26
-34.53
-16.54
6.09
30.21
52.98
72.31
86.87
95.84
98.71
95.49
86.90
74.79
61.54
49.38
39.60
32.40
27.11
22.87
19.22
16.28
15.14
16.56
20.32
25.01
28.53
28.64
23.28
11.44
-6.55
-27.33
-46.42
-59.71
-64.93
-62.21
-53.67
-42.81
-32.10
-22.32
-10.35
7.14
31.32
60.23
90.13
117.68
141.14
161.97
183.12
209.74
243.98
283.16
320.61
349.21
364.85
367.23
360.70
334.84
287.20
224.49
159.67
103.04
57.96
26.52
3.12
-15.16
-29.78
-39.59
-45.07
-48.22
-52.43
-60.64
-74.17
-93.54
-117.78
-145.86
-174.42
-199.79
-218.63
-228.58
-228.39
-218.23
-200.66
-179.12
-157.65
-138.12
-121.10
-106.38
-93.90
-83.74
-75.94
-70.51
-66.56
-62.93
-58.07
-51.36
-43.53
-36.43
-31.89
-30.66
-32.22
-34.81
-36.52
-35.88
-32.56
-27.39
-21.88
-17.55
-15.40
-15.73
-18.13
-21.80
-25.78
-29.12
-31.15
-31.55
-30.40
-28.11
-25.18
-22.15
-19.41
-17.27
-15.93
-15.47
-15.84
-16.76
-17.74
-18.12
-17.31
-14.98
-11.26
-6.64
-1.86
2.43
5.87
8.45
10.32
11.67
12.61
13.23
13.62
14.02
14.68
15.80
17.35
19.06
20.54
21.43
21.47
20.68
19.26
17.51
15.71
14.08
12.72
11.62
10.62
9.44
7.78
5.40
2.21
-1.66
-5.82
-9.79
-13.03
-15.10
-15.83
-15.29
-13.84
-11.98
-10.27
-9.10
-8.69
-9.01
-9.87
-11.03
-12.30
-13.56
-14.77
-15.87
-16.75
-17.32
-17.52
-17.44
-17.29
-17.36
-17.84
-18.82
-20.18
-21.71
-23.24
-24.65
-25.95
-27.19
-28.47
-29.81
-31.29
-33.04
-35.23
-38.13
-41.96
-46.79
-52.54
-58.95
-65.85
-73.21
-81.25
-90.19
-100.03
-110.33
-120.12
-128.16
-133.27
-134.62
-131.94
-125.42
-115.67
-103.52
-90.05
-76.56
-64.47
-55.06
-49.11
-46.62
-46.64
-47.48
-47.24
-44.35
-38.15
-28.97
-17.90
-6.32
4.67
14.49
23.13
30.74
37.35
42.65
46.00
46.69
44.26
38.68
30.57
21.12
11.93
4.73
1.00
1.64
6.72
15.54
26.85
39.15
51.11
61.70
70.29
76.50
80.10
80.98
79.19
75.09
69.34
62.87
56.69
51.64
48.15
46.19
45.40
45.18
44.95
44.25
42.75
40.30
36.94
32.89
28.53
24.25
20.32
16.82
13.57
10.22
6.31
1.42
-4.73
-12.08
-20.10
-27.68
-33.26
-35.25
-32.60
-25.20
-14.11
-1.11
11.74
22.86
31.37
37.14
40.44
41.64
41.10
39.14
36.19
32.78
29.53
26.94
25.28
24.52
24.44
24.80
25.44
26.31
27.43
28.77
30.15
31.31
31.93
31.77
30.79
29.09
26.87
24.27
21.24
17.50
12.59
6.04
-2.38
-12.27
-22.55
-31.52
-37.33
-38.55
-34.70
-26.50
-15.57
-3.96
6.58
14.98
20.91
24.54
26.25
26.36
25.10
22.68
19.45
15.86
12.39
9.44
7.28
6.00
5.61
6.00
7.00
8.28
9.46
10.09
9.86
8.67
6.69
4.24
1.67
-0.77
-3.03
-5.30
-7.96
-11.52
-16.53
-23.34
-31.78
-40.94
-49.13
-54.24
-54.37
-48.56
-37.18
-21.92
-5.17
10.73
24.13
34.31
41.27
45.35
46.94
46.37
44.12
40.83
37.41
34.68
33.16
32.85
33.29
33.81
33.88
33.40
32.59
31.85
31.40
31.10
30.40
28.68
25.55
21.07
15.76
10.38
5.52
1.40
-2.23
-5.97
-10.51
-16.44
-23.96
-32.78
-41.89
-49.67
-54.20
-53.77
-47.55
-36.02
-20.85
-4.41
11.03
23.94
33.74
40.55
44.77
46.67
46.40
44.11
40.28
35.76
31.61
28.69
27.46
27.71
28.77
29.84
30.29
29.91
28.94
27.79
26.86
26.19
25.49
24.23
21.92
18.35
13.72
8.60
3.67
-0.54
-3.84
-6.41
-8.75
-11.47
-15.11
-20.10
-26.68
-34.74
-43.64
-52.04
-58.10
-59.88
-56.11
-46.70
-32.90
-16.95
-1.24
12.42
23.14
30.91
36.17
39.35
40.66
40.24
38.28
35.28
31.93
28.97
26.93
25.98
25.92
26.34
26.84
27.20
27.38
27.43
27.30
26.80
25.65
23.70
21.05
18.12
15.37
13.06
11.09
9.05
6.44
3.03
-1.03
-5.28
-9.18
-12.41
-14.98
-17.23
-19.72
-23.09
-27.92
-34.52
-42.69
-51.42
-58.96
-63.13
-62.09
-55.07
-42.75
-27.12
-10.75
4.07
16.00
24.74
30.69
34.42
36.30
36.48
35.08
32.51
29.44
26.67
24.83
24.13
24.33
24.92
25.38
25.43
25.13
24.72
24.42
24.26
23.99
23.22
21.62
19.13
15.97
12.63
9.60
7.20
5.36
3.74
1.78
-0.93
-4.50
-8.62
-12.74
-16.31
-19.05
-21.04
-22.75
-24.88
-28.15
-33.06
-39.63
-47.20
-54.36
-59.29
-60.23
-56.16
-47.22
-34.75
-20.75
-7.28
4.25
13.26
19.85
24.40
27.19
28.32
27.84
25.97
23.16
20.10
17.44
15.63
14.72
14.54
14.79
15.20
15.65
16.07
16.39
16.46
16.13
15.31
14.10
12.76
11.54
10.58
9.70
8.61
6.93
4.49
1.45
-1.72
-4.35
-5.76
-5.45
-3.26
0.52
5.13
9.41
12.26
13.17
12.72
12.68
15.66
24.20
39.89
62.60
90.40
119.96
147.38
169.15
182.74
186.84
181.29
166.67
144.20
115.73
83.72
51.32
21.92
-1.42
-16.70
-23.49
-23.04
-17.96
-11.45
-6.68
-6.01
-10.59
-20.07
-32.76
-46.13
-57.77
-66.25
-71.72
-75.70
-80.26
-87.05
-96.64
-108.47
-121.35
-134.20
-146.39
-157.75
-168.16
-177.10
-183.68
-186.76
-185.61
-180.21
-171.39
-160.49
-148.97
-137.98
-128.13
-119.36
-111.01
-102.03
-91.27
-77.82
-61.36
-42.28
-21.59
-0.59
19.47
37.65
53.39
66.37
76.42
83.47
87.77
89.93
90.97
92.03
93.99
97.20
101.40
106.03
110.52
114.69
118.75
123.10
127.94
132.99
137.50
140.39
140.54
136.89
128.52
114.73
95.27
70.92
43.66
16.47
-7.56
-26.39
-39.63
-48.24
-53.48
-55.75
-54.30
-47.92
-36.26
-20.74
-4.51
8.80
16.57
18.24
15.19
9.75
3.93
-1.32
-6.09
-11.00
-16.49
-22.46
-28.31
-33.17
-36.33
-37.62
-37.41
-36.42
-35.37
-34.49
-33.47
-31.66
-28.48
-23.88
-18.44
-13.11
-8.87
-6.36
-5.81
-7.25
-10.81
-16.76
-25.30
-36.25
-48.78
-61.43
-72.65
-81.27
-87.08
-90.93
-94.50
-99.54
-107.16
-117.29
-128.69
-139.23
-146.43
-148.05
-142.55
-129.47
-109.74
-85.78
-61.38
-41.10
-29.31
-28.90
-40.15
-60.35
-84.47
-106.87
-123.43
-132.93
-137.37
-140.77
-147.13
-158.60
-174.59
-192.15
-207.27
-216.42
-217.46
-209.92
-194.68
-173.57
-148.98
-123.64
-100.21
-80.89
-67.02
-58.96
-56.09
-56.93
-59.28
-60.70
-59.11
-53.52
-44.42
-33.48
-22.63
-12.88
-3.64
6.91
20.65
38.19
58.33
78.45
95.85
109.01
118.24
125.43
133.29
144.54
161.34
184.86
214.90
249.66
285.89
319.55
346.94
365.74
375.49
377.38
373.33
365.34
355.04
343.98
333.88
326.46
322.86
322.83
324.48
324.77
320.66
310.24
293.36
271.25
245.75
218.49
190.45
162.16
134.04
106.71
80.83
56.99
35.47
16.28
-0.69
-15.46
-28.00
-38.27
-46.45
-53.00
-58.60
-64.04
-69.96
-76.62
-83.85
-91.06
-97.43
-102.18
-104.88
-105.50
-104.44
-102.29
-99.60
-96.69
-93.66
-90.45
-87.08
-83.74
-80.71
-78.30
-76.60
-75.48
-74.57
-73.46
-71.85
-69.67
-67.06
-64.26
-61.48
-58.81
-56.28
-53.88
-51.62
-49.48
-47.34
-45.01
-42.33
-39.24
-35.94
-32.80
-30.22
-28.54
-27.80
-27.82
-28.26
-28.84
-29.42
-29.96
-30.49
-31.06
-31.71
-32.52
-33.57
-34.92
-36.43
-37.77
-38.47
-38.09
-36.45
-33.76
-30.54
-27.40
-24.77
-22.77
-21.22
-19.87
-18.54
-17.26
-16.21
-15.55
-15.30
-15.28
-15.18
-14.75
-13.86
-12.63
-11.30
-10.12
-9.28
-8.77
-8.52
-8.41
-8.34
-8.30
-8.35
-8.58
-9.02
-9.69
-10.54
-11.47
-12.32
-12.98
-13.35
-13.42
-13.30
-13.15
-13.25
-13.84
-15.06
-16.95
-19.35
-21.91
-24.20
-25.80
-26.41
-25.89
-24.29
-21.78
-18.57
-14.97
-11.30
-7.90
-5.06
-2.93
-1.54
-0.80
-0.54
-0.59
-0.83
-1.09
-1.24
-1.09
-0.55
0.34
1.40
2.34
2.92
3.04
2.77
2.15
1.30
0.35
-0.59
-1.46
-2.33
-3.28
-4.33
-5.44
-6.64
-7.94
-9.18
-10.17
-10.73
-10.87
-10.80
-10.74
-10.99
-12.03
-14.13
-17.13
-20.50
-23.69
-26.23
-27.85
-28.34
-27.60
-26.60
-26.21
-26.64
-27.47
-28.22
-28.80
-29.42
-30.29
-31.47
-34.60
-40.60
-48.66
-56.75
-63.02
-66.92
-68.95
-69.93
-70.35
-73.31
-80.61
-91.33
-102.34
-110.66
-115.13
-116.21
-115.15
-113.20
-115.47
-125.75
-144.34
-168.28
-193.93
-218.68
-240.78
-258.75
-245.82
-189.13
-96.67
7.70
102.12
177.27
233.88
275.97
306.26
323.93
326.06
311.44
284.09
252.61
225.42
206.44
194.25
184.13
173.92
159.66
140.99
121.96
108.10
101.93
100.90
99.21
91.39
75.16
49.83
17.70
-16.84
-49.45
-77.82
-102.05
-123.47
-143.13
-161.11
-177.71
-192.68
-205.10
-213.80
-218.19
-218.70
-216.55
-213.65
-212.13
-214.41
-221.88
-233.88
-247.35
-257.58
-259.74
-250.70
-230.30
-201.59
-170.30
-143.37
-127.36
-126.98
-143.97
-176.35
-218.46
-261.90
-297.49
-317.64
-318.25
-299.43
-264.72
-219.29
-168.10
-114.80
-61.60
-9.67
40.15
87.39
131.89
173.88
213.91
252.78
291.15
329.15
366.09
400.51
430.64
454.97
472.55
482.89
485.33
478.60
461.03
431.47
390.55
341.29
288.68
238.09
193.54
156.61
126.51
101.06
77.97
55.59
33.24
11.03
-10.20
-28.89
-43.10
-50.93
-51.28
-44.39
-31.91
-16.46
-0.86
12.63
22.70
28.97
31.78
31.85
30.02
27.08
23.73
20.56
18.05
16.57
16.35
17.41
19.49
22.06
24.41
25.84
25.85
24.25
21.21
17.08
12.26
7.08
1.67
-4.03
-10.20
-17.06
-24.65
-32.85
-41.36
-49.74
-57.62
-64.83
-71.53
-78.22
-85.72
-95.01
-106.90
-121.68
-138.81
-156.76
-173.26
-186.00
-193.46
-195.63
-194.16
-191.74
-191.02
-193.27
-197.61
-201.30
-200.95
-194.25
-181.22
-164.30
-147.09
-132.53
-121.32
-111.33
-98.36
-77.41
-44.21
3.66
65.99
139.39
217.06
289.50
346.33
379.15
384.34
364.60
328.10
285.62
247.06
218.53
201.43
193.43
190.26
187.52
181.81
171.09
154.67
133.13
108.20
82.43
58.58
38.86
24.33
14.77
9.04
5.75
3.90
3.23
4.17
7.45
13.66
22.88
34.53
47.49
60.32
71.51
79.92
84.94
86.80
86.55
86.03
87.28
92.00
100.97
113.76
129.07
145.22
160.80
175.01
187.46
197.79
205.44
209.73
210.29
207.38
201.74
194.03
184.06
170.60
151.74
125.95
92.91
53.90
11.25
-32.58
-75.74
-117.03
-155.38
-189.35
-217.30
-238.19
-252.69
-263.55
-274.79
-289.79
-309.39
-331.02
-349.34
-358.44
-354.16
-335.68
-305.45
-267.99
-227.92
-188.58
-151.43
-116.50
-83.28
-51.68
-22.47
2.97
23.36
38.48
49.49
58.59
67.91
78.36
89.04
97.69
101.89
100.39
93.86
84.49
74.98
67.27
61.80
57.72
53.61
48.43
42.04
35.17
28.93
24.16
20.94
18.51
15.63
11.16
4.60
-3.60
-12.20
-19.64
-24.66
-26.74
-26.21
-23.97
-21.04
-18.13
-15.44
-12.80
-9.98
-6.90
-3.85
-1.27
0.42
1.06
0.76
-0.07
-0.99
-1.61
-1.72
-1.31
-0.53
0.38
1.14
1.54
1.50
1.04
0.21
-1.03
-2.79
-5.29
-8.69
-12.96
-17.81
-22.59
-26.62
-29.49
-31.27
-32.51
-33.88
-35.75
-38.05
-40.21
-41.36
-40.86
-38.61
-35.02
-30.51
-25.30
-19.16
-11.84
-3.30
6.07
15.22
22.64
26.78
26.88
22.75
14.70
2.68
-13.51
-33.59
-56.45
-79.90
-101.14
-117.45
-128.83
-135.68
-140.22
-145.35
-152.33
-159.80
-164.85
-165.14
-159.86
-150.05
-137.29
-123.12
-107.96
-90.95
-70.51
-44.90
-16.05
13.84
42.21
67.01
87.00
102.36
114.45
125.20
136.41
149.37
165.30
184.79
207.22
229.98
248.44
257.01
250.98
228.49
191.55
145.63
97.19
51.17
9.57
-28.15
-63.30
-96.34
-126.29
-151.59
-171.23
-185.87
-197.61
-208.79
-220.70
-232.98
-244.08
-252.31
-256.62
-257.03
-254.43
-249.86
-243.77
-235.90
-225.84
-213.42
-199.24
-184.31
-169.73
-156.44
-144.82
-134.66
-125.30
-116.06
-106.38
-96.15
-85.03
-73.17
-61.34
-50.81
-42.80
-37.67
-34.63
-31.09
-23.48
-6.58
22.96
64.75
114.54
166.02
213.26
251.64
279.35
296.07
305.70
311.49
314.47
313.93
309.39
302.15
293.97
287.81
285.26
291.72
309.70
336.84
366.76
392.34
409.12
414.81
412.30
406.06
408.24
428.16
467.42
519.40
572.93
617.71
645.56
655.80
606.41
479.83
292.08
86.63
-94.05
-229.67
-309.13
-351.28
-370.27
-375.70
-367.28
-344.86
-315.90
-288.64
-269.43
-259.54
-257.84
-259.02
-259.33
-252.06
-234.11
-207.70
-178.63
-153.33
-135.43
-126.84
-125.51
-129.41
-133.86
-135.81
-135.05
-133.26
-132.54
-133.52
-136.39
-139.70
-142.76
-144.25
-143.84
-142.43
-141.36
-141.65
-143.07
-144.76
-144.77
-141.57
-133.99
-122.10
-107.41
-92.27
-79.29
-70.31
-66.13
-66.13
-68.92
-73.00
-77.23
-80.97
-83.81
-85.30
-84.83
-81.73
-75.83
-67.63
-58.45
-49.86
-42.91
-37.53
-32.59
-26.62
-18.65
-8.68
2.64
14.14
24.76
34.04
42.23
49.97
57.75
65.71
73.74
82.14
90.79
99.05
106.18
111.93
116.82
121.99
128.65
137.63
149.63
163.38
175.76
183.25
183.83
177.94
168.24
158.25
151.11
149.52
153.14
158.77
161.73
157.96
145.17
123.00
92.84
52.07
6.86
-30.82
-50.93
-52.50
-42.72
-31.91
-26.11
-27.05
-33.21
-40.83
-47.93
-54.50
-62.29
-73.30
-88.74
-108.72
-132.50
-158.27
-182.30
-200.73
-210.40
-209.30
-196.75
-173.68
-142.72
-107.85
-73.28
-42.12
-16.88
0.46
8.71
8.26
1.20
-8.97
-18.48
-24.38
-25.04
-21.00
-14.41
-8.00
-3.74
-2.23
-2.76
-4.07
-5.00
-4.89
-3.90
-2.79
-2.45
-3.55
-6.29
-10.51
-15.75
-21.28
-25.97
-28.39
-27.18
-21.49
-11.50
1.60
15.99
29.89
42.06
51.95
59.41
64.24
66.08
64.51
59.55
51.91
42.97
34.25
26.93
21.39
17.26
13.74
10.06
5.87
1.28
-3.24
-7.21
-10.38
-12.79
-14.79
-16.90
-19.67
-23.50
-28.53
-34.50
-40.63
-45.69
-48.28
-47.17
-41.81
-32.53
-20.47
-7.27
5.47
16.52
25.22
31.37
35.06
36.46
35.81
33.46
29.92
25.85
21.90
18.56
15.98
14.00
12.23
10.32
8.12
5.73
3.45
1.55
0.07
-1.24
-2.94
-5.63
-9.83
-15.68
-22.79
-30.21
-36.59
-40.45
-40.62
-36.60
-28.73
-18.09
-6.16
5.63
16.15
24.76
31.20
35.45
37.61
37.85
36.44
33.76
30.33
26.71
23.38
20.64
18.54
16.89
15.37
13.65
11.57
9.20
6.75
4.46
2.42
0.49
-1.69
-4.63
-8.77
-14.26
-20.82
-27.57
-33.21
-36.30
-35.73
-31.10
-22.92
-12.47
-1.33
9.03
17.67
24.21
28.70
31.28
32.06
31.11
28.56
24.82
20.57
16.63
13.65
11.89
11.10
10.65
9.85
8.25
5.92
3.28
0.94
-0.69
-1.56
-2.06
-2.83
-4.50
-7.52
-12.03
-17.72
-23.83
-29.24
-32.63
-32.88
-29.46
-22.62
-13.45
-3.42
6.00
13.89
19.89
24.07
26.67
27.75
27.29
25.32
22.12
18.27
14.52
11.46
9.36
8.01
6.94
5.65
3.86
1.62
-0.75
-2.81
-4.28
-5.12
-5.58
-6.11
-7.27
-9.55
-13.27
-18.39
-24.42
-30.35
-34.87
-36.68
-34.96
-29.70
-21.69
-12.26
-2.78
5.75
12.84
18.37
22.40
24.85
25.59
24.56
21.95
18.29
14.34
10.86
8.33
6.83
6.02
5.36
4.37
2.80
0.76
-1.40
-3.31
-4.72
-5.70
-6.55
-7.80
-9.99
-13.53
-18.51
-24.57
-30.83
-36.04
-38.86
-38.29
-34.01
-26.52
-16.96
-6.70
3.04
11.46
18.20
23.13
26.23
27.43
26.75
24.39
20.84
16.81
13.05
10.16
8.34
7.40
6.83
6.09
4.76
2.76
0.28
-2.30
-4.62
-6.51
-8.05
-9.57
-11.56
-14.50
-18.75
-24.28
-30.59
-36.66
-41.10
-42.59
-40.33
-34.29
-25.27
-14.62
-3.78
6.10
14.35
20.72
25.14
27.61
28.11
26.77
23.93
20.20
16.34
13.05
10.72
9.38
8.68
8.07
7.09
5.46
3.25
0.76
-1.62
-3.60
-5.11
-6.32
-7.59
-9.34
-12.02
-15.94
-21.16
-27.29
-33.43
-38.28
-40.43
-38.86
-33.31
-24.47
-13.68
-2.57
7.48
15.68
21.77
25.90
28.29
29.11
28.48
26.52
23.55
20.06
16.66
13.89
12.02
11.00
10.51
10.08
9.34
8.10
6.43
4.56
2.70
0.98
-0.66
-2.35
-4.19
-6.25
-8.66
-11.61
-15.41
-20.28
-26.08
-32.03
-36.84
-38.99
-37.33
-31.59
-22.53
-11.65
-0.73
8.85
16.34
21.64
25.01
26.75
27.03
25.98
23.77
20.75
17.47
14.51
12.26
10.87
10.18
9.87
9.53
8.87
7.74
6.16
4.27
2.25
0.29
-1.51
-3.14
-4.69
-6.27
-8.02
-10.04
-12.53
-15.74
-19.94
-25.11
-30.81
-35.97
-39.23
-39.30
-35.49
-28.03
-18.01
-7.03
3.37
12.10
18.65
23.03
25.51
26.41
26.01
24.57
22.33
19.61
16.78
14.19
12.06
10.50
9.43
8.69
8.04
7.36
6.57
5.68
4.70
3.62
2.37
0.87
-0.86
-2.68
-4.37
-5.71
-6.67
-7.53
-8.87
-11.41
-15.64
-21.50
-28.18
-34.17
-37.77
-37.62
-33.25
-25.25
-15.11
-4.63
4.63
11.81
16.77
19.89
21.65
22.40
22.27
21.31
19.62
17.47
15.19
13.10
11.34
9.85
8.48
7.12
5.79
4.64
3.85
3.46
3.34
3.18
2.67
1.58
-0.11
-2.15
-4.24
-6.07
-7.53
-8.82
-10.49
-13.21
-17.46
-23.17
-29.56
-35.20
-38.49
-38.17
-33.86
-26.21
-16.62
-6.75
2.02
8.95
13.96
17.34
19.47
20.57
20.73
19.94
18.29
16.01
13.45
10.93
8.70
6.89
5.51
4.52
3.81
3.29
2.80
2.21
1.39
0.28
-1.15
-2.86
-4.77
-6.71
-8.51
-10.02
-11.32
-12.82
-15.18
-19.11
-24.89
-32.03
-39.24
-44.65
-46.54
-43.93
-36.94
-26.75
-15.10
-3.72
6.18
14.03
19.79
23.64
25.78
26.36
25.56
23.63
20.97
18.00
15.09
12.49
10.29
8.44
6.87
5.56
4.54
3.84
3.45
3.25
3.00
2.45
1.45
-0.03
-1.85
-3.80
-5.68
-7.41
-9.11
-11.18
-14.19
-18.71
-24.95
-32.50
-40.15
-46.12
-48.64
-46.55
-39.80
-29.49
-17.40
-5.43
5.06
13.42
19.63
23.91
26.51
27.56
27.18
25.67
23.53
21.35
19.61
18.50
17.80
17.09
15.97
14.29
12.28
10.37
8.97
8.22
7.88
7.43
6.38
4.44
1.67
-1.56
-4.82
-7.70
-10.08
-12.08
-14.16
-16.99
-21.25
-27.27
-34.71
-42.40
-48.54
-51.23
-49.21
-42.34
-31.65
-19.01
-6.34
4.89
13.97
20.85
25.73
28.79
30.08
29.62
27.62
24.61
21.32
18.45
16.45
15.32
14.71
14.16
13.34
12.27
11.22
10.56
10.48
10.80
11.03
10.50
8.75
5.66
1.59
-2.81
-6.80
-9.89
-12.01
-13.51
-15.05
-17.39
-21.19
-26.75
-33.76
-41.22
-47.58
-51.07
-50.25
-44.58
-34.62
-21.86
-8.26
4.42
15.03
23.17
29.01
32.86
34.98
35.45
34.31
31.77
28.34
24.74
21.74
19.88
19.19
19.25
19.40
19.05
18.02
16.56
15.25
14.54
14.51
14.75
14.53
13.17
10.39
6.41
1.88
-2.43
-5.99
-8.63
-10.58
-12.34
-14.47
-17.54
-21.91
-27.69
-34.44
-41.19
-46.47
-48.73
-46.85
-40.55
-30.57
-18.36
-5.63
6.20
16.19
23.94
29.33
32.38
33.19
31.97
29.21
25.59
21.90
18.88
16.92
16.09
16.02
16.18
16.03
15.33
14.14
12.80
11.73
11.09
10.75
10.21
8.89
6.40
2.79
-1.52
-5.86
-9.67
-12.71
-15.15
-17.43
-20.05
-23.47
-28.01
-33.77
-40.55
-47.63
-53.70
-57.08
-56.25
-50.41
-39.95
-26.38
-11.74
2.02
13.67
22.75
29.33
33.61
35.68
35.57
33.45
29.83
25.54
21.57
18.66
17.16
16.87
17.19
17.47
17.23
16.36
15.14
13.99
13.21
12.78
12.32
11.26
9.12
5.75
1.45
-3.24
-7.70
-11.51
-14.60
-17.15
-19.61
-22.49
-26.34
-31.61
-38.47
-46.53
-54.73
-61.36
-64.50
-62.63
-55.24
-43.07
-27.88
-11.92
2.86
15.18
24.58
31.13
35.18
37.01
36.89
35.19
32.48
29.52
27.05
25.61
25.37
26.05
27.16
28.10
28.47
28.06
27.00
25.64
24.32
23.30
22.50
21.56
19.92
17.15
13.15
8.28
3.21
-1.35
-5.02
-7.81
-10.13
-12.52
-15.48
-19.43
-24.63
-31.10
-38.47
-45.72
-51.23
-53.12
-49.89
-41.04
-27.37
-10.77
6.41
22.15
35.26
45.43
52.91
58.05
61.06
61.97
60.90
58.17
54.39
50.31
46.58
43.57
41.27
39.23
36.60
32.29
25.23
14.63
0.13
-18.16
-39.78
-64.01
-90.03
-116.85
-143.36
-168.41
-190.91
-209.94
-224.82
-235.06
-240.46
-241.19
-238.01
-232.28
-225.80
-220.31
-216.99
-216.16
-217.35
-219.56
-221.55
-221.72
-217.97
-207.61
-187.73
-156.21
-112.52
-58.17
3.71
69.37
135.17
197.70
253.34
298.00
327.81
340.60
337.41
322.83
303.52
285.62
272.25
262.64
253.28
240.39
222.15
199.39
174.81
151.13
129.81
110.67
92.65
74.91
57.39
40.91
26.48
14.66
5.17
-3.00
-10.88
-18.88
-26.42
-32.22
-35.01
-34.30
-30.89
-26.69
-24.01
-24.58
-28.70
-35.03
-41.05
-43.95
-41.66
-33.53
-20.45
-4.38
12.39
27.95
41.16
51.59
59.30
64.41
66.94
66.90
64.44
60.03
54.52
48.93
44.18
40.83
38.89
37.90
37.14
35.90
33.80
30.81
27.23
23.46
19.80
16.29
12.73
8.82
4.30
-0.90
-6.59
-12.41
-17.93
-22.82
-26.96
-30.52
-33.90
-37.65
-42.35
-48.41
-55.99
-64.76
-73.83
-81.70
-86.52
-86.56
-80.72
-69.01
-52.62
-33.60
-14.30
3.32
18.06
29.50
37.72
43.01
45.60
45.72
43.72
40.22
36.06
32.15
29.23
27.62
27.26
27.74
28.54
29.21
29.47
29.20
28.38
27.03
25.13
22.69
19.73
16.29
12.44
8.26
3.83
-0.75
-5.37
-9.91
-14.30
-18.51
-22.63
-26.85
-31.45
-36.78
-43.19
-50.90
-59.78
-69.12
-77.48
-82.94
-83.54
-77.98
-66.14
-49.24
-29.52
-9.54
8.53
23.36
34.51
42.15
46.65
48.40
47.78
45.28
41.63
37.72
34.42
32.28
31.47
31.73
32.57
33.52
34.28
34.78
35.02
34.98
34.49
33.25
31.04
27.85
23.97
19.92
16.20
13.06
10.33
7.58
4.26
0.06
-4.94
-10.32
-15.49
-19.98
-23.65
-26.77
-29.91
-33.83
-39.26
-46.54
-55.40
-64.80
-72.97
-77.79
-77.36
-70.67
-58.01
-40.89
-21.61
-2.58
14.33
27.99
38.06
44.60
47.93
48.41
46.56
43.02
38.63
34.24
30.56
27.99
26.59
26.16
26.36
26.85
27.40
27.89
28.20
28.19
27.63
26.29
24.00
20.77
16.83
12.54
8.26
4.20
0.40
-3.30
-7.08
-11.04
-15.21
-19.48
-23.70
-27.74
-31.52
-35.13
-38.88
-43.26
-48.82
-55.86
-64.04
-72.21
-78.52
-80.92
-77.81
-68.68
-54.34
-36.67
-18.00
-0.51
14.34
25.86
33.94
38.84
40.87
40.41
37.97
34.23
30.04
26.21
23.35
21.68
21.10
21.27
21.80
22.43
23.02
23.50
23.74
23.55
22.68
20.97
18.44
15.28
11.81
8.28
4.76
1.18
-2.68
-6.97
-11.73
-16.75
-21.74
-26.40
-30.55
-34.25
-37.81
-41.75
-46.74
-53.31
-61.58
-70.87
-79.64
-85.73
-86.95
-81.83
-70.21
-53.31
-33.33
-12.81
6.16
22.22
34.78
43.75
49.28
51.60
51.09
48.37
44.32
39.93
36.11
33.46
32.16
31.99
32.54
33.39
34.20
34.79
35.07
34.97
34.38
33.13
31.06
28.11
24.33
19.99
15.43
10.97
6.76
2.72
-1.38
-5.83
-10.77
-16.08
-21.45
-26.47
-30.87
-34.71
-38.34
-42.38
-47.55
-54.37
-62.88
-72.34
-81.11
-87.01
-87.80
-82.02
-69.52
-51.61
-30.68
-9.40
9.96
25.99
38.17
46.57
51.48
53.28
52.43
49.57
45.52
41.18
37.34
34.51
32.85
32.23
32.34
32.85
33.47
33.98
34.23
34.06
33.30
31.77
29.34
26.03
22.04
17.76
13.59
9.81
6.45
3.30
-0.07
-4.03
-8.76
-14.11
-19.69
-24.98
-29.59
-33.46
-36.94
-40.71
-45.55
-52.04
-60.20
-69.38
-78.19
-84.73
-87.02
-83.58
-73.86
-58.51
-39.24
-18.42
1.62
19.00
32.67
42.30
48.07
50.41
49.84
47.02
42.76
38.06
33.89
30.97
29.59
29.55
30.32
31.33
32.16
32.65
32.86
32.86
32.60
31.92
30.60
28.51
25.70
22.41
18.99
15.67
12.55
9.44
6.01
1.96
-2.89
-8.43
-14.29
-19.99
-25.10
-29.44
-33.11
-36.57
-40.53
-45.71
-52.61
-61.11
-70.31
-78.44
-83.26
-82.69
-75.52
-61.90
-43.39
-22.48
-1.88
16.24
30.65
40.99
47.50
50.69
51.09
49.26
45.86
41.65
37.46
33.96
31.54
30.25
29.88
30.06
30.43
30.78
31.00
31.09
31.02
30.65
29.73
28.00
25.29
21.69
17.56
13.33
9.36
5.72
2.20
-1.62
-6.04
-11.10
-16.53
-21.88
-26.73
-30.94
-34.66
-38.31
-42.45
-47.62
-54.13
-61.90
-70.24
-77.85
-82.91
-83.62
-78.70
-67.93
-52.26
-33.66
-14.47
3.19
17.92
29.07
36.64
40.95
42.45
41.57
38.85
34.98
30.75
26.94
24.15
22.63
22.29
22.84
23.88
25.08
26.21
27.06
27.45
27.15
25.95
23.76
20.64
16.85
12.74
8.67
4.85
1.28
-2.25
-6.01
-10.24
-14.93
-19.89
-24.70
-29.08
-32.88
-36.35
-40.05
-44.68
-50.86
-58.73
-67.68
-76.27
-82.47
-84.15
-79.74
-68.85
-52.37
-32.30
-11.17
8.66
25.46
38.34
47.17
52.26
54.13
53.39
50.72
46.89
42.69
38.93
36.18
34.71
34.41
34.91
35.74
36.54
37.12
37.50
37.71
37.64
37.03
35.48
32.73
28.76
23.95
18.92
14.26
10.22
6.67
3.09
-1.02
-5.94
-11.54
-17.34
-22.77
-27.44
-31.31
-34.69
-38.22
-42.62
-48.53
-56.22
-65.36
-74.83
-82.75
-86.90
-85.37
-77.18
-62.70
-43.55
-22.15
-0.96
18.07
33.71
45.49
53.33
57.44
58.16
56.06
51.93
46.83
41.82
37.77
35.19
34.12
34.21
34.97
35.93
36.81
37.52
38.09
38.43
38.33
37.45
35.47
32.27
28.06
23.29
18.49
14.08
10.18
6.62
3.03
-0.97
-5.59
-10.82
-16.33
-21.69
-26.46
-30.36
-33.50
-36.35
-39.70
-44.39
-51.02
-59.58
-69.19
-78.07
-83.93
-84.58
-78.60
-65.94
-47.93
-26.91
-5.53
13.97
30.16
42.45
50.83
55.51
56.80
55.11
51.09
45.71
40.15
35.52
32.54
31.35
31.60
32.62
33.80
34.78
35.47
36.00
36.45
36.78
36.71
35.87
33.98
30.99
27.13
22.86
18.63
14.76
11.25
7.84
4.12
-0.18
-5.11
-10.40
-15.60
-20.30
-24.29
-27.71
-31.00
-34.80
-39.79
-46.44
-54.76
-64.08
-72.95
-79.34
-81.15
-76.82
-65.97
-49.64
-30.00
-9.76
8.68
23.73
34.76
41.90
45.58
46.31
44.52
40.75
35.69
30.28
25.49
22.10
20.41
20.25
21.10
22.30
23.37
24.05
24.30
24.11
23.42
22.13
20.12
17.41
14.19
10.76
7.39
4.21
1.10
-2.18
-5.91
-10.25
-15.10
-20.17
-25.03
-29.29
-32.80
-35.69
-38.44
-41.76
-46.38
-52.77
-60.75
-69.35
-76.86
-81.14
-80.29
-73.26
-60.26
-42.78
-23.12
-3.74
13.37
27.04
36.85
42.96
45.75
45.70
43.39
39.56
35.04
30.71
27.27
25.15
24.39
24.79
25.94
27.43
28.87
29.92
30.33
29.94
28.73
26.74
24.07
20.85
17.17
13.17
8.92
4.49
-0.11
-4.91
-9.93
-15.11
-20.29
-25.22
-29.69
-33.63
-37.21
-40.90
-45.34
-51.16
-58.69
-67.61
-76.80
-84.42
-88.28
-86.51
-78.17
-63.67
-44.60
-23.37
-2.39
16.35
31.66
43.03
50.43
54.12
54.53
52.27
48.18
43.22
38.36
34.42
31.93
31.03
31.49
32.87
34.58
36.08
37.00
37.12
36.41
34.93
32.79
30.08
26.88
23.24
19.25
14.98
10.53
5.90
1.08
-3.99
-9.31
-14.82
-20.27
-25.36
-29.85
-33.72
-37.32
-41.32
-46.53
-53.53
-62.26
-71.81
-80.44
-85.94
-86.24
-80.07
-67.38
-49.44
-28.45
-6.93
12.92
29.61
42.40
51.13
55.99
57.31
55.65
51.75
46.62
41.35
36.93
33.99
32.69
32.77
33.68
34.87
35.93
36.67
37.08
37.20
36.96
36.16
34.50
31.77
27.96
23.36
18.45
13.74
9.57
5.91
2.48
-1.16
-5.34
-10.10
-15.19
-20.15
-24.60
-28.40
-31.75
-35.21
-39.49
-45.29
-52.92
-62.07
-71.65
-79.84
-84.48
-83.62
-76.08
-61.95
-42.59
-20.34
2.11
22.33
38.67
50.37
57.43
60.36
59.90
56.90
52.28
47.02
42.11
38.39
36.31
35.82
36.41
37.37
38.12
38.39
38.30
38.06
37.80
37.34
36.24
34.03
30.45
25.71
20.35
15.08
10.41
6.52
3.14
-0.26
-4.16
-8.83
-14.14
-19.68
-24.93
-29.54
-33.42
-36.80
-40.15
-44.09
-49.20
-55.88
-64.06
-73.00
-81.18
-86.56
-87.11
-81.49
-69.55
-52.58
-32.84
-12.90
5.05
19.67
30.47
37.52
41.13
41.70
39.69
35.78
30.87
25.99
22.06
19.65
18.87
19.41
20.75
22.40
24.01
25.39
26.45
27.07
27.06
26.20
24.35
21.53
17.98
14.06
10.10
6.30
2.62
-1.13
-5.19
-9.66
-14.45
-19.27
-23.79
-27.79
-31.31
-34.68
-38.44
-43.19
-49.42
-57.20
-66.06
-74.85
-81.82
-85.03
-82.79
-74.28
-59.84
-40.95
-19.86
1.07
19.86
35.30
46.80
54.32
58.08
58.47
56.08
51.72
46.39
41.17
36.92
34.18
33.03
33.17
34.14
35.47
36.81
37.95
38.69
38.84
38.09
36.19
33.05
28.86
24.09
19.32
14.96
11.10
7.44
3.53
-1.03
-6.31
-12.04
-17.71
-22.85
-27.19
-30.83
-34.13
-37.66
-42.06
-47.87
-55.41
-64.46
-74.16
-82.85
-88.43
-88.86
-82.80
-70.15
-52.13
-30.90
-8.93
11.61
29.22
43.04
52.70
58.11
59.44
57.22
52.40
46.31
40.38
35.76
33.01
32.00
32.15
32.78
33.43
34.04
34.75
35.71
36.80
37.55
37.38
35.82
32.76
28.51
23.66
18.83
14.41
10.52
7.00
3.52
-0.24
-4.51
-9.33
-14.52
-19.78
-24.73
-29.11
-32.83
-36.13
-39.57
-43.84
-49.64
-57.27
-66.38
-75.80
-83.62
-87.64
-85.96
-77.66
-63.14
-44.02
-22.64
-1.37
17.90
34.03
46.46
54.93
59.39
59.99
57.24
52.14
46.03
40.32
36.11
33.94
33.74
34.95
36.81
38.64
39.97
40.61
40.62
40.15
39.29
38.05
36.32
33.94
30.84
27.10
22.97
18.78
14.87
11.43
8.42
5.60
2.59
-0.99
-5.29
-10.21
-15.33
-20.16
-24.31
-27.69
-30.59
-33.63
-37.56
-43.08
-50.54
-59.61
-69.18
-77.38
-81.99
-81.08
-73.65
-60.07
-42.03
-21.96
-2.39
14.77
28.45
38.32
44.46
47.08
46.48
43.18
38.04
32.24
27.00
23.21
21.22
20.79
21.32
22.18
23.01
23.74
24.46
25.24
25.93
26.18
25.53
23.67
20.57
16.54
12.05
7.63
3.62
0.13
-3.03
-6.20
-9.71
-13.76
-18.34
-23.20
-27.98
-32.32
-36.07
-39.36
-42.65
-46.58
-51.82
-58.64
-66.69
-74.78
-81.08
-83.49
-80.35
-70.98
-56.02
-37.22
-17.03
2.21
18.73
31.59
40.59
45.97
48.13
47.57
44.88
40.83
36.30
32.23
29.31
27.86
27.78
28.63
29.87
31.11
32.13
32.93
33.53
33.81
33.52
32.28
29.82
26.14
21.57
16.68
12.11
8.28
5.19
2.46
-0.52
-4.25
-8.88
-14.17
-19.60
-24.62
-28.91
-32.51
-35.78
-39.36
-43.93
-50.04
-57.85
-66.89
-75.89
-82.88
-85.68
-82.49
-72.65
-56.91
-37.19
-16.05
4.08
21.51
35.34
45.36
51.66
54.46
54.09
51.14
46.46
41.14
36.26
32.62
30.50
29.73
29.87
30.44
31.10
31.72
32.31
32.81
33.05
32.71
31.49
29.19
25.89
21.91
17.72
13.80
10.39
7.45
4.69
1.70
-1.83
-6.00
-10.63
-15.37
-19.83
-23.73
-27.05
-30.04
-33.18
-37.13
-42.49
-49.59
-58.17
-67.17
-74.80
-78.90
-77.54
-69.68
-55.62
-36.93
-15.99
4.66
23.00
37.78
48.51
55.21
58.18
57.86
54.89
50.08
44.45
39.02
34.57
31.54
29.93
29.50
29.85
30.63
31.56
32.42
33.03
33.18
32.64
31.23
28.86
25.62
21.75
17.61
13.58
9.94
6.74
3.78
0.71
-2.82
-7.02
-11.75
-16.65
-21.23
-25.13
-28.29
-31.02
-33.90
-37.63
-42.84
-49.82
-58.31
-67.39
-75.48
-80.62
-81.00
-75.57
-64.38
-48.72
-30.72
-12.72
3.39
16.45
26.09
32.40
35.69
36.23
34.38
30.70
26.05
21.46
17.87
15.87
15.45
16.15
17.33
18.47
19.32
19.87
20.19
20.22
19.74
18.54
16.51
13.80
10.69
7.45
4.21
0.85
-2.85
-7.07
-11.73
-16.54
-21.10
-25.06
-28.34
-31.14
-33.96
-37.45
-42.23
-48.72
-56.79
-65.62
-73.62
-78.75
-79.04
-73.25
-61.36
-44.63
-25.25
-5.67
12.05
26.62
37.58
44.97
49.08
50.22
48.72
45.12
40.16
34.85
30.18
26.96
25.51
25.71
27.02
28.77
30.35
31.34
31.60
31.07
29.81
27.87
25.28
22.10
18.37
14.17
9.59
4.73
-0.31
-5.42
-10.48
-15.39
-20.05
-24.40
-28.46
-32.40
-36.63
-41.68
-48.10
-56.07
-65.07
-73.78
-80.23
-82.34
-78.60
-68.61
-53.26
-34.46
-14.55
4.31
20.55
33.32
42.32
47.64
49.59
48.64
45.47
40.99
36.14
31.81
28.61
26.81
26.31
26.79
27.85
29.09
30.21
30.98
31.23
30.86
29.75
27.90
25.29
21.99
18.10
13.77
9.15
4.37
-0.47
-5.29
-9.98
-14.48
-18.72
-22.73
-26.67
-30.83
-35.65
-41.55
-48.76
-57.07
-65.67
-73.10
-77.54
-77.31
-71.32
-59.61
-43.25
-24.18
-4.57
13.65
29.07
40.92
48.93
53.23
54.24
52.62
49.25
45.04
40.85
37.31
34.82
33.54
33.45
34.36
36.00
37.94
39.72
40.84
40.93
39.77
37.44
34.18
30.41
26.52
22.74
19.06
15.28
11.15
6.54
1.50
-3.74
-8.92
-13.79
-18.31
-22.54
-26.73
-31.21
-36.42
-42.79
-50.58
-59.49
-68.54
-76.07
-80.03
-78.66
-71.14
-57.90
-40.59
-21.55
-3.17
12.71
25.11
33.84
39.18
41.56
41.35
38.94
34.81
29.75
24.76
20.81
18.55
18.11
19.05
20.63
22.11
23.03
23.27
22.95
22.21
21.15
19.67
17.67
15.11
12.06
8.70
5.16
1.51
-2.30
-6.34
-10.61
-14.96
-19.20
-23.16
-26.81
-30.33
-34.05
-38.43
-43.89
-50.68
-58.52
-66.55
-73.17
-76.46
-74.64
-66.79
-53.23
-35.49
-15.87
3.29
20.18
33.81
43.88
50.48
53.82
54.16
51.97
47.96
43.12
38.48
34.83
32.52
31.46
31.27
31.57
32.09
32.74
33.50
34.26
34.77
34.66
33.57
31.31
27.97
23.90
19.57
15.38
11.54
7.98
4.39
0.41
-4.20
-9.44
-15.07
-20.70
-25.96
-30.65
-34.90
-39.15
-44.04
-50.20
-57.91
-66.81
-75.69
-82.64
-85.49
-82.51
-72.99
-57.55
-38.01
-16.81
3.67
21.65
36.16
46.85
53.79
57.14
57.21
54.52
49.98
44.74
40.01
36.69
35.14
35.17
36.18
37.56
38.86
39.90
40.68
41.23
41.41
40.96
39.59
37.08
33.52
29.21
24.71
20.55
17.10
14.40
12.07
9.51
6.12
1.54
-4.22
-10.69
-17.21
-23.13
-28.09
-32.21
-36.03
-40.40
-46.10
-53.54
-62.42
-71.60
-79.27
-83.29
-81.86
-74.04
-60.15
-41.63
-20.73
0.16
19.00
34.48
45.98
53.39
56.90
56.90
53.99
49.04
43.21
37.70
33.51
31.21
30.76
31.71
33.32
34.93
36.11
36.74
36.90
36.71
36.19
35.19
33.46
30.77
27.07
22.63
17.92
13.48
9.66
6.47
3.57
0.45
-3.31
-7.89
-13.10
-18.53
-23.66
-28.12
-31.80
-34.88
-37.82
-41.21
-45.64
-51.54
-58.89
-67.13
-75.06
-81.03
-83.29
-80.48
-72.08
-58.65
-41.76
-23.51
-5.96
9.30
21.41
30.18
35.80
38.53
38.67
36.58
32.86
28.42
24.30
21.42
20.22
20.55
21.82
23.29
24.45
25.18
25.68
26.17
26.70
27.01
26.61
25.08
22.29
18.47
14.15
9.90
6.16
3.02
0.31
-2.41
-5.52
-9.29
-13.68
-18.44
-23.10
-27.25
-30.65
-33.38
-35.89
-38.90
-43.16
-49.22
-57.06
-65.92
-74.26
-80.07
-81.33
-76.70
-65.96
-50.14
-31.22
-11.49
6.99
22.85
35.38
44.39
49.94
52.15
51.34
48.06
43.21
37.93
33.33
30.20
28.83
28.98
30.06
31.43
32.58
33.30
33.61
33.65
33.50
33.10
32.25
30.70
28.30
25.03
21.11
16.92
12.85
9.22
6.08
3.23
0.30
-3.12
-7.26
-12.06
-17.15
-22.04
-26.29
-29.70
-32.42
-34.86
-37.65
-41.45
-46.80
-53.93
-62.46
-71.31
-78.74
-82.63
-81.18
-73.46
-59.82
-41.80
-21.68
-1.76
16.14
30.96
42.21
49.79
53.75
54.34
52.08
47.82
42.64
37.67
33.76
31.38
30.52
30.88
31.98
33.32
34.53
35.36
35.75
35.69
35.23
34.35
32.98
30.99
28.24
24.72
20.56
16.09
11.70
7.79
4.53
1.85
-0.65
-3.46
-6.98
-11.28
-16.07
-20.83
-25.00
-28.31
-30.84
-33.00
-35.41
-38.72
-43.44
-49.82
-57.62
-65.95
-73.26
-77.58
-77.00
-70.36
-57.68
-40.25
-20.26
-0.19
17.84
32.47
43.15
49.91
53.09
53.15
50.63
46.26
40.95
35.72
31.49
28.81
27.75
27.93
28.70
29.50
30.00
30.23
30.40
30.64
30.91
30.89
30.19
28.47
25.61
21.82
17.50
13.14
9.15
5.76
2.94
0.42
-2.21
-5.31
-9.08
-13.41
-17.99
-22.41
-26.35
-29.76
-32.81
-35.85
-39.32
-43.64
-49.21
-56.17
-64.22
-72.34
-78.83
-81.68
-79.22
-70.76
-56.96
-39.64
-21.23
-3.98
10.52
21.52
28.95
33.12
34.44
33.43
30.67
26.89
22.89
19.43
17.03
15.90
15.90
16.67
17.81
19.00
20.10
21.12
22.07
22.88
23.27
22.94
21.62
19.29
16.22
12.86
9.71
7.03
4.76
2.52
-0.19
-3.74
-8.16
-13.13
-18.11
-22.58
-26.30
-29.42
-32.44
-36.08
-41.02
-47.63
-55.77
-64.54
-72.43
-77.51
-77.99
-72.79
-61.93
-46.56
-28.63
-10.28
6.68
21.10
32.41
40.46
45.29
47.03
46.02
42.84
38.38
33.63
29.48
26.51
24.88
24.35
24.52
25.03
25.70
26.52
27.52
28.57
29.33
29.28
28.03
25.47
21.92
17.97
14.19
10.86
7.86
4.78
1.17
-3.18
-8.15
-13.36
-18.33
-22.67
-26.25
-29.24
-32.12
-35.63
-40.50
-47.21
-55.63
-64.85
-73.20
-78.67
-79.38
-74.20
-63.13
-47.29
-28.60
-9.32
8.57
23.66
35.23
43.13
47.55
48.90
47.68
44.53
40.23
35.64
31.61
28.72
27.22
26.99
27.63
28.72
29.88
30.89
31.58
31.82
31.42
30.20
28.11
25.27
21.98
18.59
15.36
12.30
9.19
5.71
1.64
-3.03
-8.03
-12.93
-17.32
-20.99
-24.02
-26.75
-29.79
-33.81
-39.39
-46.73
-55.38
-64.04
-70.77
-73.43
-70.35
-61.00
-46.19
-27.89
-8.57
9.50
24.78
36.57
44.84
49.87
52.00
51.50
48.76
44.37
39.14
34.03
29.88
27.21
26.06
26.15
27.01
28.17
29.31
30.19
30.62
30.38
29.30
27.25
24.36
20.90
17.23
13.61
10.14
6.73
3.16
-0.76
-5.11
-9.83
-14.69
-19.40
-23.69
-27.45
-30.81
-34.23
-38.37
-43.85
-50.96
-59.29
-67.63
-74.13
-76.78
-74.01
-65.30
-51.39
-34.14
-15.93
1.04
15.26
26.10
33.61
38.16
40.13
39.82
37.58
33.88
29.47
25.14
21.61
19.30
18.29
18.39
19.28
20.64
22.15
23.54
24.53
24.88
24.40
23.01
20.73
17.70
14.11
10.13
5.92
1.58
-2.81
-7.21
-11.51
-15.65
-19.52
-23.09
-26.45
-29.75
-33.35
-37.63
-43.06
-49.83
-57.69
-65.70
-72.23
-75.34
-73.31
-65.27
-51.55
-33.64
-13.79
5.64
22.73
36.27
45.76
51.26
53.11
51.88
48.33
43.35
37.90
32.90
29.02
26.56
25.46
25.39
25.98
26.90
27.94
28.95
29.76
30.07
29.59
28.12
25.68
22.50
18.96
15.34
11.75
8.09
4.16
-0.16
-4.84
-9.69
-14.45
-18.91
-23.00
-26.82
-30.70
-35.09
-40.51
-47.39
-55.70
-64.76
-73.08
-78.63
-79.38
-73.93
-62.10
-45.08
-25.09
-4.73
13.69
28.72
39.81
47.08
51.00
52.02
50.57
47.11
42.29
36.98
32.15
28.60
26.71
26.34
26.98
28.02
28.99
29.71
30.18
30.42
30.33
29.59
27.91
25.15
21.48
17.34
13.18
9.32
5.77
2.28
-1.47
-5.67
-10.25
-14.93
-19.33
-23.22
-26.68
-30.09
-34.11
-39.43
-46.40
-54.81
-63.62
-71.11
-75.20
-74.11
-66.92
-53.93
-36.56
-17.01
2.46
19.99
34.44
45.36
52.71
56.66
57.45
55.49
51.40
46.10
40.65
36.06
32.96
31.48
31.31
31.92
32.82
33.73
34.55
35.27
35.73
35.57
34.37
31.83
27.99
23.29
18.39
13.94
10.28
7.31
4.56
1.43
-2.45
-7.10
-12.15
-17.07
-21.41
-25.05
-28.22
-31.44
-35.38
-40.66
-47.62
-56.09
-65.18
-73.26
-78.25
-78.22
-72.00
-59.68
-42.63
-23.12
-3.69
13.55
27.23
36.80
42.31
44.18
43.01
39.53
34.54
28.89
23.41
18.78
15.49
13.70
13.30
14.02
15.41
17.02
18.41
19.23
19.25
18.40
16.75
14.50
11.85
8.97
5.92
2.66
-0.91
-4.82
-9.03
-13.35
-17.56
-21.40
-24.77
-27.66
-30.28
-33.03
-36.44
-41.08
-47.31
-54.95
-63.12
-70.14
-73.96
-72.66
-65.23
-51.89
-34.18
-14.47
4.78
21.61
34.89
44.32
50.05
52.46
51.98
49.11
44.50
38.99
33.51
28.89
25.68
24.03
23.70
24.23
25.10
25.84
26.19
26.02
25.35
24.23
22.65
20.58
17.92
14.58
10.55
5.91
0.82
-4.48
-9.75
-14.78
-19.44
-23.72
-27.67
-31.48
-35.45
-40.03
-45.75
-53.03
-61.80
-71.18
-79.41
-84.13
-83.16
-75.28
-60.80
-41.54
-20.22
0.42
18.36
32.53
42.74
49.18
52.18
52.04
49.20
44.34
38.44
32.58
27.78
24.66
23.38
23.64
24.82
26.24
27.35
27.84
27.67
27.02
26.05
24.81
23.17
20.87
17.63
13.37
8.23
2.55
-3.22
-8.72
-13.74
-18.27
-22.45
-26.50
-30.68
-35.31
-40.80
-47.51
-55.51
-64.32
-72.63
-78.51
-79.82
-74.98
-63.57
-46.58
-26.15
-4.91
14.75
31.22
43.78
52.36
57.23
58.77
57.41
53.72
48.49
42.69
37.36
33.32
31.02
30.44
31.11
32.37
33.54
34.18
34.09
33.30
31.93
30.08
27.74
24.83
21.24
16.94
12.00
6.61
1.04
-4.42
-9.50
-14.05
-18.11
-21.91
-25.82
-30.31
-35.82
-42.66
-50.87
-59.98
-68.95
-76.14
-79.63
-77.74
-69.60
-55.63
-37.47
-17.57
1.55
17.91
30.48
39.04
43.85
45.33
43.84
39.79
33.83
26.96
20.39
15.31
12.45
11.91
13.17
15.32
17.41
18.78
19.23
18.91
18.14
17.18
16.01
14.37
11.88
8.25
3.46
-2.13
-7.94
-13.34
-17.90
-21.56
-24.66
-27.78
-31.59
-36.57
-43.00
-50.82
-59.49
-68.00
-74.78
-77.96
-75.84
-67.43
-52.97
-33.99
-12.93
7.52
25.18
38.83
48.22
53.70
55.83
55.12
52.02
47.11
41.23
35.52
31.10
28.76
28.62
30.14
32.28
33.99
34.54
33.76
31.92
29.47
26.77
23.91
20.75
17.01
12.44
6.91
0.47
-6.62
-14.00
-21.23
-27.92
-33.89
-39.17
-44.08
-49.09
-54.84
-61.97
-71.03
-82.17
-94.79
-107.42
-117.78
-123.42
-122.54
-114.79
-101.44
-85.12
-68.88
-55.29
-45.84
-40.87
-40.00
-42.64
-48.35
-56.93
-68.34
-82.32
-98.40
-115.77
-133.39
-150.04
-164.32
-174.69
-179.49
-177.35
-167.61
-150.83
-128.96
-104.96
-81.95
-62.21
-46.34
-33.16
-20.27
-5.14
13.76
36.43
61.68
88.00
114.69
142.43
173.07
208.60
249.86
295.46
341.82
384.16
418.21
441.80
455.43
461.59
463.35
463.12
462.09
460.52
458.29
454.97
449.36
438.93
420.07
389.57
346.71
294.61
239.72
189.29
147.99
115.80
88.60
61.03
30.19
-2.35
-31.46
-51.45
-59.50
-57.29
-50.04
-43.87
-43.05
-48.82
-60.00
-74.70
-91.66
-110.40
-130.69
-151.61
-171.32
-187.66
-199.18
-205.66
-208.07
-207.88
-206.36
-204.05
-200.88
-196.62
-191.33
-185.49
-179.72
-174.34
-168.93
-162.41
-153.41
-140.79
-123.99
-102.96
-77.93
-49.17
-17.15
17.16
51.94
84.66
112.77
134.55
149.84
160.05
167.40
173.70
179.28
182.79
181.71
173.66
157.60
134.50
107.13
79.12
53.88
33.76
19.70
11.42
7.85
7.56
9.05
11.02
12.50
13.06
12.69
11.71
10.35
8.61
6.20
2.60
-2.76
-10.47
-21.12
-35.25
-53.16
-74.56
-98.38
-122.98
-146.64
-168.08
-186.77
-202.80
-216.50
-228.37
-239.24
-250.55
-264.25
-281.95
-303.68
-326.92
-346.93
-358.22
-356.91
-342.41
-317.74
-288.28
-259.63
-235.75
-218.18
-206.30
-198.35
-192.49
-187.40
-182.47
-177.57
-172.68
-167.48
-161.03
-151.62
-137.08
-115.32
-85.26
-47.54
-4.88
38.25
76.70
105.98
123.57
129.52
126.21
117.22
106.08
95.22
85.66
77.57
70.93
66.24
64.49
66.71
73.26
83.46
95.70
108.05
119.08
128.28
136.14
143.53
150.99
158.29
164.53
168.80
170.85
171.49
172.09
173.69
176.17
177.98
176.97
171.72
162.46
150.92
139.10
127.70
115.55
100.41
80.77
57.41
33.43
12.61
-2.68
-12.75
-20.11
-27.60
-36.46
-45.78
-53.32
-57.35
-57.85
-56.36
-54.74
-53.77
-52.54
-49.13
-41.98
-31.05
-18.19
-6.58
0.50
0.68
-6.76
-20.74
-38.66
-57.26
-73.48
-85.37
-92.53
-95.97
-97.54
-98.95
-101.19
-104.44
-108.45
-113.05
-118.31
-124.23
-130.26
-135.01
-136.65
-133.68
-125.74
-113.79
-99.81
-85.90
-73.65
-63.81
-56.51
-51.60
-48.84
-47.87
-47.91
-47.70
-45.56
-39.79
-29.08
-12.87
8.51
33.76
60.84
87.26
110.66
129.57
143.70
153.95
161.78
168.43
174.41
179.58
183.69
186.87
189.66
192.39
194.55
194.71
191.25
183.61
173.11
162.52
154.79
151.43
151.84
153.91
155.38
155.06
153.14
150.28
146.49
140.31
129.14
110.32
82.30
45.28
1.02
-47.73
-98.10
-147.66
-194.92
-239.33
-281.25
-321.47
-360.77
-399.39
-436.58
-470.36
-497.77
-515.59
-521.50
-515.01
-497.83
-473.30
-445.02
-415.41
-385.00
-352.65
-316.76
-276.65
-233.31
-189.19
-147.00
-108.54
-74.10
-42.60
-12.34
18.27
50.36
84.91
122.92
165.15
210.88
256.74
296.38
322.10
327.89
312.42
280.29
240.71
203.90
177.53
164.59
163.92
172.48
187.77
208.94
236.19
269.01
304.78
338.64
364.86
378.95
379.41
368.26
349.82
328.53
306.65
283.30
255.35
219.51
174.36
121.12
62.70
2.13
-58.38
-117.10
-171.47
-217.28
-249.39
-263.82
-260.06
-242.09
-217.25
-193.48
-176.53
-168.65
-168.89
-174.60
-182.85
-190.86
-195.97
-195.41
-186.90
-169.71
-145.48
-118.07
-92.45
-72.75
-60.71
-55.15
-52.73
-49.62
-43.05
-32.12
-17.69
-1.56
14.48
29.23
42.20
53.34
62.60
69.72
74.28
75.89
74.33
69.60
61.91
51.53
38.73
23.83
7.21
-10.60
-28.99
-47.15
-64.19
-79.25
-91.71
-101.42
-108.72
-114.26
-118.66
-122.18
-124.50
-124.86
-122.21
-115.57
-104.34
-88.47
-68.57
-45.86
-22.02
1.21
22.33
40.43
55.30
67.44
77.73
87.19
96.69
106.76
117.55
128.93
140.58
152.21
163.68
175.23
187.48
201.43
218.14
238.17
261.05
285.02
307.27
324.73
334.89
336.39
329.13
313.86
291.75
264.08
232.16
197.29
160.80
123.94
87.95
54.25
24.60
0.87
-15.51
-24.21
-26.39
-24.26
-20.27
-16.18
-12.60
-9.41
-6.45
-4.08
-3.14
-4.56
-8.68
-15.01
-22.47
-29.71
-35.70
-39.85
-42.05
-42.62
-42.15
-41.36
-40.93
-41.28
-42.50
-44.38
-46.50
-48.42
-49.78
-50.47
-50.56
-50.48
-50.92
-52.81
-56.94
-63.64
-72.43
-81.89
-89.92
-94.31
-93.41
-86.74
-75.17
-60.67
-45.71
-32.50
-22.50
-16.17
-13.19
-12.78
-14.00
-16.04
-18.20
-19.93
-20.88
-20.93
-20.25
-19.24
-18.34
-17.87
-17.92
-18.41
-19.23
-20.32
-21.70
-23.39
-25.40
-27.68
-30.11
-32.56
-34.84
-36.79
-38.33
-39.56
-40.67
-41.78
-42.62
-42.31
-39.57
-33.19
-22.76
-9.05
5.99
20.00
31.05
38.30
42.13
43.63
43.88
43.45
42.23
39.68
35.31
28.95
20.85
11.50
1.51
-8.62
-18.42
-27.35
-34.75
-39.88
-42.18
-41.48
-38.18
-33.16
-27.47
-22.02
-17.27
-13.26
-9.72
-6.46
-3.60
-1.60
-1.16
-2.93
-7.37
-14.50
-23.91
-34.64
-45.20
-53.86
-58.97
-59.44
-55.21
-47.39
-37.98
-29.29
-23.34
-21.25
-23.33
-29.11
-37.83
-48.66
-60.79
-73.34
-85.23
-95.36
-102.72
-106.79
-107.69
-106.11
-103.06
-99.45
-95.76
-91.86
-87.22
-81.18
-73.31
-63.57
-52.34
-40.30
-28.23
-16.89
-6.94
1.18
7.27
11.35
13.55
14.01
12.84
10.21
6.45
2.29
-1.20
-2.78
-1.40
3.42
11.38
21.34
31.71
40.74
47.07
49.99
49.59
46.62
42.16
37.30
32.83
29.21
26.73
25.59
26.06
28.26
32.01
36.65
41.22
44.72
46.53
46.70
45.92
45.17
45.27
46.45
48.33
50.13
51.09
50.88
49.73
48.28
47.33
47.50
49.05
51.81
55.12
57.90
58.81
56.63
50.75
41.50
30.26
19.07
10.01
4.50
3.02
5.11
9.69
15.56
21.73
27.56
32.69
36.99
40.32
42.48
43.18
42.15
39.39
35.31
30.74
26.66
23.82
22.39
21.98
21.93
21.65
21.02
20.27
19.78
19.74
19.98
20.02
19.38
17.82
15.40
12.47
9.40
6.42
3.62
0.99
-1.48
-3.76
-5.88
-7.93
-10.17
-12.87
-16.22
-20.00
-23.51
-25.57
-24.78
-20.00
-10.75
2.45
18.28
34.93
50.77
64.69
76.32
85.82
93.51
99.62
104.19
107.21
108.83
109.39
109.40
109.36
109.79
111.19
114.16
119.22
126.48
135.21
143.78
149.98
151.89
148.63
140.76
129.88
117.81
105.65
93.56
80.98
67.38
52.76
37.69
22.81
8.33
-6.12
-21.22
-37.41
-54.70
-72.70
-91.08
-109.96
-129.86
-151.12
-173.18
-194.15
-210.94
-220.17
-219.28
-207.39
-185.54
-156.24
-122.58
-87.37
-52.72
-20.14
8.97
32.90
49.64
57.40
55.39
44.29
26.23
4.11
-19.17
-41.31
-60.61
-75.74
-85.65
-89.93
-89.49
-86.93
-86.13
-90.73
-102.38
-119.47
-137.38
-150.09
-152.48
-142.12
-119.85
-89.09
-54.39
-20.16
10.17
34.25
50.80
59.45
60.68
55.65
45.92
33.05
18.40
3.13
-11.70
-24.88
-35.19
-41.74
-44.31
-43.60
-40.96
-37.89
-35.40
-33.68
-32.16
-30.03
-26.83
-22.81
-18.95
-16.43
-16.03
-17.69
-20.47
-22.97
-23.99
-23.06
-20.56
-17.47
-14.79
-13.05
-12.07
-11.08
-9.20
-5.96
-1.60
2.83
5.88
6.27
3.47
-1.95
-8.47
-14.07
-17.05
-16.57
-12.96
-7.64
-2.68
-0.37
-2.77
-11.41
-26.89
-48.59
-74.40
-100.97
-124.45
-141.68
-151.31
-154.23
-153.04
-150.81
-149.56
-149.30
-148.10
-143.23
-132.72
-116.49
-96.50
-75.65
-56.36
-39.46
-24.16
-8.94
7.14
23.79
39.63
53.13
63.67
71.87
79.03
86.13
93.14
99.00
102.47
102.99
101.19
98.54
96.51
95.85
96.27
96.80
96.40
94.54
91.29
87.10
82.37
77.09
70.86
63.12
53.43
41.63
27.77
12.23
-4.20
-20.05
-33.18
-41.27
-42.62
-37.01
-26.09
-12.75
-0.03
10.10
17.24
22.15
25.67
27.80
27.46
23.25
14.48
2.03
-11.68
-23.59
-31.17
-33.30
-30.51
-24.40
-16.71
-8.58
-0.22
8.76
18.71
29.40
39.90
48.84
55.10
58.28
58.89
57.93
56.41
54.78
52.82
49.91
45.42
39.05
30.93
21.51
11.38
1.28
-7.88
-15.11
-19.43
-20.25
-17.59
-12.11
-4.85
3.15
11.07
18.37
24.56
29.10
31.34
30.85
27.66
22.39
16.06
9.77
4.26
-0.29
-4.20
-8.00
-12.09
-16.62
-21.42
-26.18
-30.71
-35.05
-39.58
-44.82
-51.23
-58.92
-67.59
-76.55
-85.00
-92.29
-98.20
-102.96
-107.05
-111.09
-115.50
-120.44
-125.75
-130.98
-135.44
-138.26
-138.53
-135.37
-128.09
-116.34
-100.11
-79.85
-56.44
-31.12
-5.43
19.05
40.93
59.31
74.01
85.54
94.92
103.36
111.84
120.87
130.48
140.31
149.86
158.66
166.37
172.79
177.88
181.60
183.86
184.42
183.01
179.43
173.85
166.91
159.71
153.46
149.06
146.68
145.72
145.06
143.52
140.27
135.17
128.79
122.21
116.71
113.37
112.64
113.99
115.83
115.77
111.27
100.55
83.32
60.96
36.02
11.37
-10.78
-29.36
-44.38
-56.43
-66.04
-73.41
-78.44
-81.01
-81.28
-79.80
-77.27
-74.24
-70.92
-67.18
-62.79
-57.66
-52.06
-46.54
-41.80
-38.41
-36.60
-36.24
-36.86
-37.96
-39.13
-40.30
-41.72
-43.88
-47.27
-52.18
-58.41
-65.20
-71.32
-75.34
-76.10
-73.11
-66.84
-58.54
-49.85
-42.28
-36.62
-32.87
-30.37
-28.29
-26.11
-23.85
-21.96
-20.96
-20.98
-21.53
-21.71
-20.67
-18.12
-14.53
-10.99
-8.66
-8.20
-9.53
-11.95
-14.63
-16.98
-18.85
-20.45
-22.12
-24.34
-27.76
-33.28
-41.70
-53.16
-66.53
-79.39
-88.81
-92.54
-90.13
-83.16
-74.40
-66.25
-59.42
-52.50
-42.82
-28.00
-7.35
17.61
43.75
67.63
86.71
99.96
107.63
110.56
109.55
105.11
97.73
88.25
78.07
68.90
62.20
58.50
57.19
56.78
55.66
52.81
48.23
42.93
38.37
35.75
35.41
36.65
38.06
38.32
36.73
33.58
30.01
27.49
27.08
28.79
31.42
32.80
30.77
23.69
10.70
-8.08
-31.81
-59.21
-89.01
-120.17
-151.71
-182.13
-209.86
-233.54
-252.00
-264.04
-268.13
-262.60
-246.51
-220.13
-184.74
-143.43
-100.40
-59.66
-23.52
7.96
36.78
65.07
94.73
127.40
163.40
201.82
240.94
279.15
315.53
350.18
383.13
406.12
411.24
394.55
359.33
314.12
268.23
228.33
199.71
179.00
161.75
144.83
126.28
105.13
80.64
54.42
27.36
-0.30
-29.51
-60.98
-94.61
-130.03
-166.43
-202.51
-236.10
-264.40
-284.23
-293.44
-290.88
-276.68
-252.36
-220.27
-183.04
-143.21
-103.38
-65.96
-33.20
-6.35
14.58
30.25
41.23
47.24
47.19
39.92
25.58
6.16
-14.71
-33.25
-46.99
-55.56
-60.08
-61.99
-62.18
-60.83
-58.24
-55.36
-53.99
-55.99
-62.28
-72.22
-83.94
-95.22
-104.45
-111.06
-115.46
-118.61
-121.53
-124.85
-128.63
-132.22
-134.46
-134.09
-130.28
-123.03
-113.18
-102.03
-90.74
-79.97
-69.80
-59.88
-49.77
-39.18
-28.19
-17.21
-6.91
2.04
9.29
14.92
19.27
22.54
24.47
24.47
22.08
17.52
11.93
6.88
3.58
2.11
1.15
-1.43
-7.64
-18.43
-33.42
-51.12
-69.61
-87.15
-102.40
-114.38
-122.16
-124.91
-122.09
-113.95
-101.94
-88.64
-77.20
-70.19
-68.71
-71.92
-77.40
-82.14
-83.53
-80.14
-71.76
-59.16
-43.58
-26.40
-9.09
6.85
19.95
29.05
33.54
33.66
30.39
25.18
19.49
14.46
10.68
8.29
7.10
6.82
7.23
8.18
9.50
10.94
12.23
13.05
13.22
12.65
11.26
8.93
5.54
1.13
-3.83
-8.43
-11.59
-12.53
-11.37
-9.27
-8.05
-9.40
-14.02
-21.17
-28.83
-34.49
-36.09
-32.65
-24.42
-12.45
1.90
17.40
33.06
48.09
61.73
73.26
82.11
88.04
91.14
91.86
90.86
88.85
86.47
84.17
82.13
80.34
78.54
76.46
73.90
70.91
67.78
64.95
62.77
61.43
60.86
60.89
61.40
62.32
63.70
65.53
67.71
69.93
71.88
73.30
74.20
74.88
75.95
78.16
82.36
89.29
99.58
113.60
131.42
152.71
176.77
202.62
229.02
254.37
276.67
293.40
301.95
300.15
286.97
262.87
229.66
189.85
146.03
100.59
55.79
14.18
-21.37
-48.14
-64.33
-69.75
-65.88
-55.33
-41.36
-27.41
-17.13
-14.13
-21.33
-39.77
-67.76
-100.91
-133.55
-160.84
-180.41
-192.65
-199.55
-202.95
-203.21
-199.37
-190.15
-175.33
-156.37
-135.94
-116.73
-100.46
-87.41
-76.76
-67.34
-58.18
-48.74
-38.75
-27.86
-15.65
-1.77
13.70
29.95
45.52
58.76
68.41
74.14
76.61
77.18
77.27
77.84
79.06
80.45
81.20
80.49
77.88
73.29
67.01
59.54
51.43
43.12
34.87
26.61
18.02
8.60
-2.11
-14.20
-27.12
-39.58
-49.76
-55.68
-55.89
-49.91
-38.47
-23.35
-6.80
9.04
22.64
33.22
40.67
45.29
47.53
47.86
46.72
44.55
41.79
38.83
35.97
33.41
31.24
29.50
28.20
27.33
26.83
26.56
26.26
25.60
24.25
21.99
18.77
14.76
10.28
5.70
1.33
-2.72
-6.60
-10.74
-15.74
-22.10
-29.96
-38.74
-47.22
-53.66
-56.38
-54.23
-47.03
-35.62
-21.57
-6.72
7.31
19.42
29.07
36.09
40.53
42.49
42.16
39.88
36.26
32.08
28.11
24.96
22.87
21.74
21.25
21.08
21.03
21.03
21.04
20.91
20.40
19.24
17.19
14.16
10.27
5.79
1.07
-3.53
-7.79
-11.73
-15.61
-19.97
-25.36
-32.13
-40.09
-48.33
-55.31
-59.22
-58.60
-52.81
-42.28
-28.42
-13.11
1.81
14.98
25.68
33.70
39.08
41.99
42.61
41.23
38.29
34.38
30.15
26.17
22.81
20.15
18.15
16.64
15.51
14.69
14.14
13.72
13.21
12.27
10.56
7.94
4.51
0.61
-3.29
-6.82
-9.84
-12.53
-15.39
-19.02
-23.98
-30.41
-37.89
-45.26
-50.97
-53.36
-51.29
-44.52
-33.80
-20.67
-6.93
5.83
16.54
24.71
30.26
33.31
34.06
32.87
30.26
26.93
23.62
20.87
18.88
17.52
16.45
15.38
14.23
13.13
12.31
11.87
11.72
11.47
10.62
8.76
5.74
1.76
-2.72
-7.08
-10.84
-13.83
-16.23
-18.59
-21.64
-26.06
-32.16
-39.65
-47.55
-54.29
-58.09
-57.53
-52.05
-42.12
-29.20
-15.16
-1.79
9.72
18.79
25.38
29.65
31.84
32.15
30.90
28.53
25.63
22.79
20.44
18.78
17.70
17.00
16.41
15.79
15.09
14.37
13.69
13.04
12.28
11.19
9.47
6.95
3.61
-0.30
-4.39
-8.20
-11.45
-14.10
-16.51
-19.30
-23.17
-28.57
-35.41
-42.91
-49.69
-54.10
-54.76
-50.98
-43.00
-31.93
-19.31
-6.71
4.73
14.35
21.93
27.45
30.92
32.29
31.61
29.15
25.49
21.47
17.97
15.64
14.67
14.79
15.42
15.94
15.96
15.45
14.65
13.84
13.15
12.47
11.44
9.71
7.14
3.86
0.27
-3.23
-6.32
-8.92
-11.18
-13.42
-16.01
-19.38
-23.81
-29.38
-35.75
-42.05
-47.04
-49.33
-47.91
-42.50
-33.67
-22.66
-10.97
0.03
9.42
16.72
21.82
24.77
25.78
25.11
23.16
20.45
17.55
14.95
12.98
11.73
11.04
10.61
10.15
9.50
8.70
7.90
7.29
6.88
6.50
5.84
4.57
2.53
-0.14
-3.12
-5.99
-8.41
-10.26
-11.69
-13.03
-14.74
-17.28
-21.03
-26.07
-32.09
-38.23
-43.27
-45.88
-45.11
-40.69
-33.18
-23.72
-13.68
-4.22
3.96
10.54
15.48
18.80
20.49
20.58
19.22
16.80
13.85
10.95
8.56
6.90
5.97
5.57
5.49
5.60
5.78
5.96
6.01
5.71
4.77
3.04
0.53
-2.52
-5.70
-8.60
-10.97
-12.76
-14.18
-15.63
-17.58
-20.52
-24.75
-30.18
-36.21
-41.70
-45.26
-45.68
-42.31
-35.41
-25.99
-15.52
-5.37
3.50
10.64
15.94
19.47
21.26
21.41
20.16
17.92
15.27
12.73
10.68
9.15
8.02
7.09
6.28
5.64
5.29
5.26
5.38
5.31
4.66
3.16
0.82
-2.07
-5.10
-7.90
-10.33
-12.43
-14.46
-16.75
-19.69
-23.60
-28.66
-34.71
-41.05
-46.47
-49.54
-49.09
-44.67
-36.73
-26.55
-15.67
-5.42
3.37
10.42
15.75
19.40
21.35
21.58
20.26
17.79
14.78
11.86
9.54
8.05
7.32
7.13
7.18
7.27
7.26
7.12
6.81
6.19
5.08
3.35
0.99
-1.77
-4.62
-7.26
-9.59
-11.72
-13.96
-16.69
-20.28
-24.93
-30.59
-36.87
-42.92
-47.57
-49.53
-47.85
-42.25
-33.29
-22.25
-10.68
0.02
8.97
15.82
20.58
23.44
24.58
24.16
22.46
19.91
17.09
14.55
12.69
11.63
11.24
11.27
11.44
11.60
11.66
11.59
11.28
10.58
9.29
7.30
4.64
1.49
-1.82
-4.97
-7.78
-10.22
-12.61
-15.42
-19.25
-24.44
-30.90
-37.93
-44.28
-48.47
-49.25
-46.01
-38.97
-29.06
-17.64
-6.02
4.76
14.01
21.34
26.46
29.25
29.72
28.17
25.20
21.64
18.33
15.95
14.78
14.74
15.40
16.24
16.87
17.09
16.97
16.67
16.22
15.51
14.23
12.11
9.10
5.41
1.51
-2.13
-5.21
-7.76
-10.09
-12.67
-15.94
-20.24
-25.68
-32.08
-38.84
-45.00
-49.29
-50.51
-47.81
-41.09
-31.02
-18.92
-6.32
5.45
15.47
23.31
28.80
31.93
32.76
31.51
28.64
24.87
21.12
18.23
16.69
16.51
17.28
18.29
18.98
19.00
18.41
17.51
16.62
15.90
15.23
14.29
12.71
10.31
7.15
3.57
0.02
-3.12
-5.68
-7.74
-9.60
-11.66
-14.32
-17.93
-22.68
-28.44
-34.73
-40.59
-44.77
-46.01
-43.47
-37.08
-27.52
-16.11
-4.29
6.67
15.99
23.31
28.56
31.79
33.08
32.57
30.51
27.36
23.79
20.57
18.40
17.66
18.35
20.01
21.96
23.56
24.45
24.69
24.62
24.59
24.77
25.01
25.01
24.46
23.28
21.60
19.75
18.04
16.69
15.74
15.18
14.88
14.72
14.46
13.78
12.37
10.09
7.20
4.45
2.95
3.88
8.15
16.02
27.12
40.53
55.13
69.85
83.85
96.55
107.53
116.44
122.99
127.02
128.57
128.01
125.97
123.21
120.37
117.61
114.29
108.99
99.79
84.91
63.40
35.56
2.99
-31.84
-66.14
-97.40
-123.73
-144.13
-158.64
-168.29
-174.94
-180.71
-187.23
-194.93
-202.76
-208.57
-209.97
-205.47
-195.25
-181.18
-166.16
-152.90
-142.72
-134.92
-127.21
-116.74
-101.38
-80.58
-55.19
-26.80
2.83
31.94
58.52
80.24
95.08
102.29
102.97
99.73
95.16
90.24
83.55
72.00
52.75
25.09
-8.87
-45.09
-79.36
-108.81
-132.33
-149.97
-162.05
-168.54
-169.30
-164.59
-155.66
-144.58
-133.82
-125.30
-119.76
-116.49
-113.81
-109.87
-103.47
-94.57
-84.18
-73.94
-65.37
-59.27
-55.48
-52.88
-49.87
-44.97
-37.24
-26.59
-13.70
0.34
14.41
27.56
39.23
49.07
56.93
62.78
66.67
68.76
69.30
68.68
67.38
65.97
64.96
64.73
65.33
66.46
67.58
68.10
67.67
66.30
64.33
62.24
60.36
58.69
56.92
54.58
51.23
46.68
41.07
34.81
28.40
22.24
16.48
11.02
5.55
-0.25
-6.53
-13.25
-20.07
-26.40
-31.46
-34.37
-34.32
-30.75
-23.62
-13.55
-1.67
10.56
21.82
31.22
38.44
43.54
46.81
48.45
48.57
47.24
44.70
41.40
38.05
35.38
33.91
33.75
34.63
35.99
37.21
37.86
37.78
37.09
36.03
34.79
33.35
31.55
29.13
25.94
22.04
17.69
13.29
9.16
5.43
2.01
-1.33
-4.89
-8.95
-13.73
-19.41
-26.07
-33.49
-40.98
-47.38
-51.23
-51.30
-46.96
-38.49
-26.96
-13.89
-0.78
11.25
21.53
29.79
35.97
40.08
42.22
42.61
41.62
39.74
37.55
35.56
34.14
33.47
33.49
33.98
34.63
35.15
35.39
35.30
34.96
34.44
33.68
32.52
30.74
28.14
24.66
20.44
15.81
11.12
6.71
2.75
-0.80
-4.08
-7.36
-10.93
-15.09
-20.04
-25.88
-32.39
-39.01
-44.79
-48.57
-49.35
-46.55
-40.28
-31.28
-20.66
-9.59
1.04
10.68
19.04
25.98
31.29
34.76
36.27
35.89
34.02
31.32
28.57
26.53
25.62
25.87
26.93
28.25
29.30
29.80
29.77
29.40
28.92
28.40
27.72
26.57
24.67
21.84
18.14
13.82
9.25
4.76
0.52
-3.43
-7.20
-10.95
-14.90
-19.25
-24.23
-29.96
-36.35
-42.88
-48.60
-52.30
-52.84
-49.58
-42.56
-32.60
-20.93
-8.88
2.49
12.52
20.85
27.32
31.83
34.32
34.89
33.85
31.73
29.18
26.81
25.05
24.05
23.74
23.89
24.23
24.56
24.82
24.98
25.05
24.97
24.59
23.71
22.11
19.69
16.46
12.59
8.36
4.11
0.13
-3.44
-6.64
-9.75
-13.21
-17.48
-22.91
-29.50
-36.90
-44.29
-50.56
-54.52
-55.13
-51.82
-44.70
-34.54
-22.61
-10.35
1.09
10.93
18.92
25.07
29.49
32.20
33.24
32.73
31.00
28.64
26.35
24.72
24.04
24.27
25.06
25.99
26.71
27.07
27.16
27.10
26.97
26.70
26.05
24.75
22.64
19.72
16.15
12.20
8.11
4.06
0.15
-3.61
-7.26
-10.89
-14.69
-18.94
-23.93
-29.85
-36.62
-43.70
-50.15
-54.70
-56.13
-53.63
-47.12
-37.29
-25.39
-12.95
-1.28
8.72
16.65
22.55
26.62
29.14
30.35
30.47
29.77
28.59
27.32
26.29
25.71
25.60
25.84
26.25
26.69
27.04
27.28
27.34
27.21
26.83
26.17
25.18
23.82
22.00
19.61
16.62
13.12
9.29
5.44
1.77
-1.60
-4.75
-7.76
-10.81
-14.05
-17.72
-22.15
-27.61
-34.14
-41.30
-48.06
-52.96
-54.60
-52.09
-45.39
-35.35
-23.42
-11.17
0.12
9.66
17.15
22.61
26.21
28.12
28.56
27.81
26.27
24.43
22.78
21.66
21.20
21.33
21.86
22.55
23.26
23.93
24.54
25.05
25.29
25.09
24.25
22.70
20.56
18.04
15.35
12.64
9.84
6.80
3.34
-0.58
-4.80
-9.00
-12.87
-16.29
-19.36
-22.44
-25.99
-30.38
-35.78
-42.00
-48.41
-54.03
-57.64
-58.10
-54.71
-47.49
-37.24
-25.35
-13.34
-2.44
6.65
13.76
19.03
22.69
24.85
25.61
25.10
23.63
21.68
19.76
18.30
17.55
17.53
18.11
19.09
20.23
21.35
22.31
22.94
23.09
22.60
21.38
19.43
16.94
14.18
11.44
8.84
6.30
3.57
0.40
-3.31
-7.37
-11.41
-15.05
-18.09
-20.66
-23.16
-26.15
-30.11
-35.26
-41.41
-47.89
-53.61
-57.32
-57.88
-54.65
-47.71
-37.88
-26.45
-14.79
-4.01
5.22
12.63
18.20
22.04
24.25
25.00
24.54
23.19
21.40
19.58
18.14
17.35
17.33
18.02
19.20
20.61
21.95
23.01
23.63
23.68
23.08
21.80
19.90
17.57
15.04
12.52
10.12
7.76
5.25
2.39
-0.93
-4.67
-8.64
-12.61
-16.38
-19.86
-23.08
-26.24
-29.62
-33.51
-38.09
-43.24
-48.48
-52.89
-55.35
-54.77
-50.54
-42.74
-32.20
-20.29
-8.48
2.05
10.68
17.29
22.07
25.25
26.93
27.12
25.89
23.56
20.71
18.06
16.20
15.40
15.57
16.35
17.34
18.23
18.83
19.11
19.01
18.48
17.46
15.96
14.05
11.86
9.48
6.99
4.36
1.57
-1.42
-4.58
-7.88
-11.26
-14.65
-18.07
-21.60
-25.38
-29.63
-34.50
-40.00
-45.80
-51.27
-55.47
-57.40
-56.29
-51.78
-44.14
-34.15
-22.90
-11.55
-1.05
7.99
15.26
20.66
24.20
25.91
25.92
24.44
21.96
19.06
16.45
14.65
13.95
14.24
15.17
16.25
17.12
17.58
17.63
17.40
16.94
16.22
15.08
13.37
10.95
7.84
4.21
0.30
-3.61
-7.27
-10.61
-13.70
-16.77
-20.17
-24.24
-29.24
-35.20
-41.80
-48.36
-53.86
-57.16
-57.29
-53.75
-46.70
-36.89
-25.46
-13.64
-2.47
7.31
15.24
21.13
24.90
26.62
26.53
24.99
22.49
19.65
17.06
15.22
14.41
14.64
15.64
16.93
18.03
18.62
18.63
18.21
17.53
16.69
15.59
14.03
11.76
8.70
4.98
0.90
-3.19
-7.05
-10.65
-14.15
-17.83
-21.95
-26.75
-32.29
-38.48
-45.01
-51.38
-56.75
-60.15
-60.64
-57.58
-50.90
-41.22
-29.65
-17.54
-6.07
3.99
12.33
18.91
23.83
27.10
28.73
28.79
27.60
25.70
23.76
22.37
21.84
22.17
23.11
24.29
25.36
26.11
26.51
26.61
26.49
26.16
25.53
24.40
22.59
19.93
16.43
12.24
7.66
3.03
-1.34
-5.31
-8.94
-12.47
-16.33
-20.96
-26.70
-33.55
-41.07
-48.34
-54.13
-57.14
-56.46
-51.79
-43.55
-32.80
-20.88
-9.10
1.55
10.51
17.61
22.92
26.61
28.84
29.75
29.50
28.34
26.64
24.87
23.54
22.99
23.38
24.55
26.12
27.62
28.64
28.96
28.56
27.59
26.24
24.65
22.84
20.68
18.04
14.84
11.12
7.10
3.06
-0.77
-4.27
-7.50
-10.66
-14.03
-17.89
-22.52
-28.08
-34.55
-41.55
-48.29
-53.58
-56.17
-55.05
-49.88
-41.06
-29.68
-17.15
-4.86
6.14
15.20
22.09
26.82
29.56
30.57
30.22
28.92
27.15
25.37
23.96
23.17
23.02
23.41
24.13
25.00
25.84
26.53
26.96
26.98
26.41
25.17
23.25
20.80
18.03
15.12
12.18
9.20
6.07
2.73
-0.87
-4.64
-8.46
-12.23
-15.89
-19.50
-23.22
-27.30
-32.01
-37.54
-43.75
-50.08
-55.48
-58.70
-58.56
-54.38
-46.27
-35.07
-22.19
-9.15
2.75
12.73
20.47
26.01
29.49
31.07
30.90
29.24
26.51
23.38
20.55
18.62
17.85
18.12
19.02
20.10
21.01
21.68
22.18
22.58
22.79
22.56
21.60
19.73
17.01
13.74
10.26
6.91
3.80
0.89
-1.96
-4.87
-7.91
-11.13
-14.53
-18.19
-22.25
-26.89
-32.23
-38.24
-44.57
-50.57
-55.33
-57.87
-57.45
-53.78
-47.07
