1537364722.00
64.000000
-0.00
-0.00
-0.00
-0.00
-0.00
-0.00
-0.00
-0.00
-0.00
-0.00
0.00
0.01
0.01
-0.00
-0.03
-0.05
-0.05
0.00
0.13
0.36
0.66
1.01
1.37
1.72
2.06
2.40
2.79
3.24
3.80
4.42
5.06
5.66
6.20
6.68
7.15
7.68
8.31
9.14
10.09
11.04
11.88
12.56
13.14
13.76
14.65
15.96
17.91
20.32
22.90
25.38
27.58
29.57
31.68
34.32
37.81
42.54
48.15
54.10
59.83
64.97
69.58
74.14
79.34
85.71
93.76
103.00
112.62
121.73
129.77
136.75
143.30
150.75
157.77
166.64
177.95
191.79
206.97
220.57
228.25
225.36
208.53
176.87
132.76
80.05
23.07
-34.94
-92.44
-149.16
-205.23
-260.37
-313.74
-363.87
-409.83
-450.91
-486.50
-515.74
-537.23
-549.22
-549.96
-538.37
-514.21
-478.67
-433.88
-382.45
-327.02
-269.84
-212.63
-156.66
-102.95
-52.37
-5.90
35.58
71.43
101.35
125.50
144.38
158.69
169.15
176.37
180.75
182.57
182.07
179.51
175.23
169.65
163.18
156.15
148.81
141.30
133.69
126.02
118.33
110.69
103.16
95.80
88.68
81.83
75.25
68.95
62.95
57.25
51.86
46.78
42.03
37.59
33.45
29.61
26.07
22.81
19.83
17.11
14.66
12.47
10.54
8.84
7.36
6.10
5.00
4.05
3.22
2.51
1.90
1.39
1.00
0.70
0.48
0.31
0.16
0.01
-0.14
-0.28
-0.39
-0.46
-0.47
-0.45
-0.44
-0.47
-0.57
-0.71
-0.88
-1.00
-1.04
-0.99
-0.90
-0.87
-0.98
-1.28
-1.73
-2.24
-2.64
-2.83
-2.78
-2.61
-2.51
-2.68
-3.23
-4.11
-5.09
-5.90
-6.31
-6.28
-5.98
-5.76
-5.95
-6.74
-8.03
-9.50
-10.71
-11.38
-11.40
-10.99
-10.49
-10.29
-10.68
-11.84
-13.88
-16.59
-19.32
-20.87
-19.83
-15.10
-6.54
4.77
16.84
27.47
35.13
39.43
41.01
40.98
40.33
39.53
38.60
37.39
35.86
34.12
32.28
30.24
27.68
24.24
19.47
13.32
6.25
-0.85
-6.94
-11.07
-12.78
-12.14
-9.85
-6.87
-4.16
-2.39
-1.81
-2.35
-3.67
-5.41
-7.27
-9.07
-10.74
-12.18
-13.26
-13.86
-13.86
-13.18
-11.86
-10.02
-7.89
-5.70
-3.73
-2.23
-1.38
-1.28
-1.86
-2.96
-4.31
-5.65
-6.78
-7.59
-8.07
-8.25
-8.22
-8.02
-7.74
-7.50
-7.32
-7.14
-6.66
-5.48
-3.23
0.17
4.42
8.86
12.74
15.41
16.59
16.36
15.06
13.12
10.94
8.79
6.88
5.32
4.14
3.26
2.59
1.97
1.21
0.21
-1.09
-2.62
-4.22
-5.72
-7.01
-8.08
-8.98
-9.82
-10.60
-11.23
-11.59
-11.59
-11.29
-10.96
-11.00
-11.90
-14.06
-17.54
-21.93
-26.29
-29.34
-29.83
-27.05
-21.07
-12.74
-3.37
5.79
13.86
20.45
25.48
28.80
30.23
29.53
26.72
22.22
16.87
11.68
7.49
4.75
3.41
3.06
3.13
3.08
2.60
1.62
0.26
-1.36
-3.13
-5.11
-7.39
-10.07
-13.12
-16.46
-19.93
-23.45
-27.01
-30.49
-33.57
-35.66
-36.01
-33.94
-29.22
-22.13
-13.44
-4.16
4.76
12.54
18.67
22.76
24.57
24.05
21.44
17.27
12.38
7.74
4.13
1.99
1.37
1.88
3.03
4.27
5.24
5.73
5.70
5.15
4.08
2.39
-0.06
-3.40
-7.73
-12.93
-18.74
-24.73
-30.27
-34.67
-37.13
-37.01
-33.94
-27.99
-19.77
-10.25
-0.54
8.43
16.04
22.02
26.31
28.96
30.03
29.68
28.28
26.35
24.47
23.06
22.20
21.63
20.86
19.43
17.13
14.02
10.41
6.62
2.91
-0.64
-4.09
-7.60
-11.43
-15.90
-21.35
-28.05
-35.94
-44.51
-52.73
-59.32
-63.02
-63.01
-59.12
-51.79
-41.96
-30.75
-19.29
-8.50
1.00
8.86
15.07
19.83
23.48
26.37
28.82
30.97
32.90
34.58
36.03
37.25
38.27
39.15
39.81
40.04
39.45
37.61
34.25
29.37
23.33
16.72
10.17
4.09
-1.39
-6.42
-11.29
-16.29
-21.62
-27.34
-33.30
-39.07
-43.91
-46.86
-46.94
-43.46
-36.30
-26.07
-13.91
-1.29
10.43
20.28
27.83
33.05
36.17
37.48
37.22
35.67
33.15
30.13
27.14
24.61
22.73
21.46
20.50
19.57
18.54
17.47
16.60
16.08
15.90
15.81
15.40
14.28
12.29
9.52
6.32
3.07
0.08
-2.54
-4.82
-6.98
-9.25
-11.90
-15.20
-19.39
-24.51
-30.27
-35.99
-40.63
-43.06
-42.44
-38.48
-31.57
-22.61
-12.73
-2.95
6.03
13.85
20.37
25.53
29.28
31.61
32.68
32.84
32.67
32.71
33.30
34.45
35.84
37.00
37.55
37.33
36.45
35.11
33.56
31.84
29.90
27.60
24.87
21.74
18.28
14.64
10.88
6.99
2.92
-1.38
-5.87
-10.40
-14.71
-18.50
-21.55
-23.78
-25.24
-26.12
-26.73
-27.45
-28.69
-30.72
-33.58
-36.86
-39.73
-41.14
-40.13
-36.25
-29.77
-21.58
-12.86
-4.57
2.73
9.07
14.65
19.72
24.22
27.91
30.45
31.65
31.58
30.53
28.95
27.31
25.97
25.14
24.91
25.24
26.09
27.41
29.15
31.16
33.10
34.45
34.59
33.06
29.77
25.08
19.71
14.43
9.81
5.99
2.76
-0.23
-3.29
-6.46
-9.54
-12.22
-14.24
-15.54
-16.31
-16.98
-18.09
-20.10
-23.27
-27.50
-32.34
-36.93
-40.30
-41.49
-39.93
-35.55
-28.83
-20.61
-11.82
-3.17
4.89
12.16
18.46
23.51
26.86
28.17
27.33
24.74
21.15
17.44
14.31
12.09
10.69
9.87
9.45
9.45
10.01
11.24
12.99
14.82
16.10
16.24
14.93
12.31
8.86
5.25
2.06
-0.40
-2.12
-3.35
-4.42
-5.60
-7.02
-8.67
-10.44
-12.23
-13.97
-15.63
-17.25
-18.92
-20.80
-23.07
-25.84
-28.99
-32.14
-34.67
-35.89
-35.23
-32.45
-27.72
-21.55
-14.63
-7.67
-1.22
4.32
8.79
12.16
14.50
15.91
16.53
16.54
16.17
15.67
15.23
15.00
14.93
14.89
14.69
14.20
13.42
12.52
11.77
11.40
11.48
11.84
12.07
11.65
10.12
7.30
3.34
-1.32
-6.09
-10.42
-13.99
-16.68
-18.60
-19.99
-21.13
-22.29
-23.65
-25.23
-26.86
-28.15
-28.61
-27.74
-25.24
-21.14
-15.80
-9.91
-4.26
0.46
3.84
5.81
6.60
6.63
6.36
6.20
6.48
7.40
9.07
11.38
14.00
16.42
18.05
18.42
17.31
14.90
11.69
8.31
5.35
3.19
1.90
1.32
1.12
0.97
0.64
-0.06
-1.21
-2.92
-5.23
-8.09
-11.31
-14.54
-17.46
-19.86
-21.87
-23.86
-26.30
-29.46
-33.16
-36.76
-39.26
-39.68
-37.38
-32.30
-24.99
-16.38
-7.58
0.44
6.98
11.67
14.47
15.54
15.23
13.98
12.30
10.71
9.64
9.36
9.93
11.21
12.94
14.77
16.39
17.51
17.89
17.36
15.86
13.44
10.27
6.60
2.76
-0.92
-4.17
-6.77
-8.67
-9.92
-10.70
-11.20
-11.58
-11.95
-12.33
-12.78
-13.47
-14.69
-16.78
-19.98
-24.26
-29.29
-34.47
-39.09
-42.41
-43.73
-42.49
-38.37
-31.51
-22.52
-12.50
-2.73
5.61
11.80
15.68
17.51
17.81
17.12
15.88
14.48
13.25
12.47
12.32
12.88
14.06
15.66
17.36
18.80
19.59
19.44
18.23
16.08
13.36
10.49
7.81
5.40
3.05
0.49
-2.47
-5.73
-8.97
-11.75
-13.82
-15.28
-16.53
-18.17
-20.66
-24.20
-28.64
-33.61
-38.56
-42.87
-45.81
-46.61
-44.57
-39.21
-30.54
-19.19
-6.45
6.04
16.67
24.31
28.65
30.10
29.60
28.12
26.38
24.69
23.10
21.61
20.27
19.27
18.75
18.67
18.85
19.03
19.01
18.73
18.26
17.69
17.06
16.34
15.41
14.16
12.47
10.26
7.52
4.41
1.19
-1.83
-4.42
-6.59
-8.56
-10.72
-13.43
-16.87
-20.95
-25.33
-29.54
-33.02
-35.20
-35.56
-33.74
-29.63
-23.47
-15.90
-7.78
-0.02
6.66
11.77
15.15
16.87
17.20
16.53
15.30
13.97
12.82
12.02
11.55
11.37
11.48
11.93
12.82
14.15
15.73
17.21
18.14
18.13
16.98
14.73
11.57
7.84
3.88
0.01
-3.54
-6.65
-9.33
-11.73
-14.08
-16.65
-19.64
-23.11
-26.92
-30.62
-33.57
-35.01
-34.28
-31.03
-25.33
-17.70
-8.99
-0.14
7.96
14.64
19.58
22.79
24.54
25.25
25.31
24.95
24.20
23.03
21.51
19.88
18.50
17.67
17.48
17.69
17.93
17.80
17.13
15.97
14.49
12.88
11.25
9.54
7.62
5.26
2.21
-1.80
-6.83
-12.71
-18.91
-24.56
-28.69
-30.47
-29.49
-25.85
-20.21
-13.52
-6.79
-0.88
3.66
6.59
7.92
7.84
6.60
4.52
2.00
-0.58
-2.87
-4.62
-5.74
-6.28
-6.45
-6.54
-6.87
-7.70
-9.12
-11.11
-13.42
-15.75
-17.80
-19.41
-20.57
-21.47
-22.37
-23.58
-25.30
-27.63
-30.41
-33.25
-35.54
-36.60
-35.91
-33.18
-28.49
-22.16
-14.63
-6.39
2.04
10.08
17.09
22.47
25.85
27.19
26.84
25.42
23.55
21.68
19.99
18.44
16.91
15.27
13.50
11.67
9.92
8.42
7.28
6.51
6.02
5.61
5.02
3.97
2.23
-0.39
-3.89
-8.08
-12.44
-16.21
-18.52
-18.66
-16.31
-11.57
-4.93
2.83
10.85
18.26
24.33
28.53
30.60
30.69
29.32
27.23
25.14
23.47
22.20
21.01
19.50
17.49
15.10
12.82
11.34
11.29
12.84
15.52
18.13
19.12
17.19
11.76
3.37
-6.44
-15.74
-22.85
-27.03
-28.47
-27.97
-26.34
-24.04
-21.04
-17.02
-11.75
-5.35
1.75
8.85
15.06
19.44
21.23
20.03
16.03
10.13
3.83
-1.19
-3.61
-3.10
-0.41
3.02
5.60
6.35
5.16
2.79
0.29
-1.56
-2.67
-3.50
-4.74
-6.84
-9.81
-13.29
-16.82
-20.23
-23.61
-27.09
-30.57
-33.48
-35.01
-34.36
-31.22
-25.91
-19.38
-12.76
-6.95
-2.32
1.24
4.12
6.55
8.27
8.60
6.75
2.46
-3.37
-8.54
-10.03
-5.09
7.50
26.64
49.02
70.20
86.18
94.72
95.73
90.92
82.70
73.24
63.98
55.62
48.42
42.43
37.46
32.95
28.03
21.61
12.94
1.95
-10.61
-23.24
-34.16
-41.79
-45.13
-44.07
-39.29
-32.12
-24.15
-16.83
-11.14
-7.46
-5.63
-5.20
-5.71
-6.74
-8.05
-9.49
-10.83
-11.88
-12.42
-12.37
-11.78
-10.79
-9.56
-8.22
-6.89
-5.71
-4.94
-4.88
-5.78
-7.68
-10.39
-13.50
-16.53
-19.13
-21.14
-22.66
-23.92
-25.24
-26.88
-29.05
-31.79
-34.96
-38.15
-40.67
-41.68
-40.41
-36.43
-29.90
-21.56
-12.51
-3.89
3.48
9.17
13.15
15.66
16.95
17.35
17.15
16.71
16.35
16.31
16.67
17.29
17.89
18.03
17.40
15.80
13.38
10.49
7.66
5.38
3.88
3.06
2.55
1.89
0.79
-0.77
-2.58
-4.28
-5.60
-6.43
-6.80
-6.92
-7.02
-7.39
-8.32
-10.01
-12.43
-15.23
-17.76
-19.22
-18.91
-16.45
-11.96
-6.05
0.44
6.61
11.80
15.61
18.01
19.13
19.20
18.43
16.99
15.04
12.83
10.71
9.06
8.23
8.33
9.24
10.59
11.89
12.77
13.04
12.75
12.12
11.34
10.51
9.57
8.39
6.81
4.79
2.34
-0.45
-3.50
-6.76
-10.17
-13.69
-17.15
-20.38
-23.12
-25.18
-26.46
-26.91
-26.57
-25.38
-23.27
-20.13
-15.90
-10.69
-4.81
1.18
6.61
10.83
13.46
14.41
13.97
12.61
10.88
9.21
7.93
7.25
7.36
8.42
10.43
13.19
16.20
18.81
20.42
20.65
19.53
17.37
14.64
11.80
9.15
6.85
4.97
3.55
2.58
2.01
1.71
1.42
0.82
-0.37
-2.39
-5.29
-8.94
-13.04
-17.10
-20.58
-22.88
-23.54
-22.30
-19.24
-14.76
-9.44
-3.97
1.11
5.40
8.65
10.73
11.60
11.31
10.08
8.25
6.27
4.54
3.31
2.68
2.59
2.92
3.50
4.18
4.78
5.14
5.20
4.95
4.49
3.96
3.42
2.87
2.22
1.41
0.44
-0.61
-1.66
-2.71
-3.88
-5.38
-7.41
-10.06
-13.23
-16.63
-19.77
-22.15
-23.28
-22.79
-20.52
-16.57
-11.28
-5.22
0.88
6.28
10.34
12.63
13.01
11.61
8.78
4.97
0.71
-3.54
-7.33
-10.24
-11.91
-12.17
-11.08
-9.00
-6.47
-4.03
-2.02
-0.54
0.49
1.17
1.47
1.28
0.49
-0.89
-2.70
-4.72
-6.75
-8.76
-10.78
-12.85
-14.87
-16.58
-17.66
-17.78
-16.77
-14.62
-11.53
-7.86
-4.02
-0.39
2.74
5.28
7.28
8.86
10.14
11.15
11.87
12.17
11.98
11.22
9.96
8.25
6.22
4.01
1.77
-0.37
-2.26
-3.76
-4.79
-5.32
-5.41
-5.15
-4.64
-4.00
-3.35
-2.82
-2.54
-2.70
-3.46
-4.95
-7.24
-10.23
-13.66
-16.99
-19.58
-20.69
-19.79
-16.72
-11.74
-5.51
1.18
7.57
13.10
17.46
20.56
22.41
23.11
22.83
21.84
20.46
19.07
18.01
17.50
17.58
18.17
19.07
20.01
20.74
21.02
20.67
19.58
17.79
15.43
12.75
10.03
7.46
5.15
3.00
0.77
-1.79
-4.82
-8.25
-11.74
-14.76
-16.77
-17.35
-16.34
-13.88
-10.33
-6.19
-1.93
2.02
5.36
7.84
9.29
9.64
8.93
7.32
5.02
2.28
-0.65
-3.56
-6.27
-8.62
-10.50
-11.82
-12.53
-12.65
-12.31
-11.70
-11.02
-10.45
-10.05
-9.76
-9.55
-9.53
-9.96
-11.20
-13.48
-16.69
-20.26
-23.30
-24.85
-24.26
-21.34
-16.43
-10.20
-3.46
3.09
8.89
13.56
16.82
18.46
18.40
16.70
13.65
9.76
5.66
1.98
-0.81
-2.56
-3.45
-3.82
-4.11
-4.59
-5.35
-6.30
-7.31
-8.25
-9.17
-10.23
-11.69
-13.83
-16.85
-20.82
-25.60
-30.78
-35.69
-39.51
-41.42
-40.84
-37.59
-31.92
-24.44
-15.99
-7.37
0.72
7.82
13.62
17.90
20.55
21.51
20.88
18.98
16.30
13.46
11.00
9.30
8.38
8.04
7.92
7.69
7.16
6.32
5.26
4.04
2.69
1.12
-0.77
-3.08
-5.87
-9.25
-13.29
-18.06
-23.42
-28.94
-33.84
-37.08
-37.67
-34.99
-29.00
-20.27
-9.83
1.09
11.34
20.00
26.50
30.60
32.43
32.37
30.97
28.81
26.36
23.94
21.73
19.82
18.30
17.25
16.73
16.67
16.85
16.97
16.71
15.85
14.34
12.25
9.77
7.03
4.15
1.15
-2.00
-5.38
-9.13
-13.38
-18.23
-23.57
-29.06
-33.97
-37.33
-38.11
-35.60
-29.71
-21.06
-10.81
-0.36
9.08
16.78
22.48
26.31
28.54
29.39
29.11
27.90
26.10
24.13
22.43
21.33
20.93
21.13
21.61
22.08
22.29
22.18
21.79
21.21
20.47
19.46
18.00
15.89
13.04
9.56
5.71
1.80
-1.89
-5.24
-8.27
-11.14
-14.07
-17.29
-20.96
-25.09
-29.40
-33.25
-35.74
-35.90
-33.07
-27.14
-18.65
-8.62
1.72
11.26
19.24
25.27
29.26
31.32
31.72
30.82
29.07
26.94
24.89
23.25
22.18
21.70
21.67
21.84
21.98
21.98
21.82
21.59
21.33
21.02
20.54
19.73
18.50
16.86
14.89
12.68
10.26
7.58
4.54
1.15
-2.48
-6.13
-9.61
-12.83
-15.85
-18.92
-22.33
-26.36
-31.11
-36.40
-41.72
-46.16
-48.67
-48.27
-44.45
-37.37
-27.91
-17.38
-7.15
1.77
8.90
14.22
17.98
20.45
21.86
22.45
22.55
22.58
23.03
24.22
26.21
28.77
31.43
33.67
35.09
35.51
34.93
33.51
31.46
28.92
25.94
22.57
18.87
15.00
11.16
7.58
4.34
1.38
-1.46
-4.37
-7.41
-10.50
-13.37
-15.63
-16.93
-17.12
-16.38
-15.22
-14.39
-14.59
-16.20
-19.04
-22.37
-25.11
-26.10
-24.52
-20.10
-13.17
-4.52
4.76
13.63
21.28
27.27
31.54
34.26
35.67
35.96
35.26
33.66
31.41
28.80
26.19
23.79
21.67
19.74
17.88
16.01
14.19
12.55
11.21
10.20
9.47
8.84
8.13
7.14
5.73
3.78
1.26
-1.78
-5.20
-8.81
-12.41
-15.80
-18.82
-21.38
-23.45
-25.06
-26.43
-27.83
-29.68
-32.30
-35.80
-39.89
-43.87
-46.70
-47.33
-44.98
-39.49
-31.38
-21.69
-11.73
-2.65
4.75
10.20
13.76
15.73
16.40
16.01
14.74
12.82
10.56
8.36
6.55
5.32
4.66
4.41
4.40
4.55
4.93
5.63
6.69
8.05
9.42
10.50
10.98
10.68
9.61
7.93
5.85
3.59
1.29
-1.05
-3.50
-6.17
-9.14
-12.44
-16.01
-19.70
-23.27
-26.24
-28.06
-28.07
-25.81
-21.08
-14.21
-5.89
2.90
11.17
18.15
23.40
26.84
28.66
29.18
28.71
27.49
25.69
23.40
20.74
17.85
14.91
12.10
9.59
7.53
6.02
5.19
5.13
5.87
7.33
9.25
11.23
12.73
13.23
12.32
9.86
6.04
1.33
-3.60
-8.13
-11.86
-14.76
-17.10
-19.37
-22.01
-25.32
-29.31
-33.69
-37.93
-41.35
-43.26
-43.05
-40.36
-35.24
-28.15
-19.88
-11.35
-3.38
3.54
9.26
13.89
17.60
20.48
22.47
23.50
23.56
22.77
21.44
19.91
18.51
17.41
16.59
15.89
15.09
14.05
12.77
11.43
10.25
9.35
8.67
7.95
6.84
5.02
2.41
-0.85
-4.43
-7.96
-11.14
-13.86
-16.18
-18.30
-20.48
-22.93
-25.71
-28.74
-31.73
-34.27
-35.88
-36.10
-34.58
-31.18
-25.99
-19.34
-11.81
-4.14
2.95
8.81
13.09
15.75
17.07
17.52
17.66
17.93
18.59
19.63
20.85
21.93
22.53
22.39
21.44
19.77
17.62
15.32
13.13
11.19
9.49
7.93
6.45
5.04
3.74
2.56
1.37
-0.11
-2.15
-4.92
-8.29
-11.88
-15.22
-17.96
-20.05
-21.76
-23.44
-25.40
-27.63
-29.83
-31.49
-32.04
-31.07
-28.33
-23.87
-17.93
-11.00
-3.67
3.35
9.44
14.17
17.33
18.94
19.19
18.33
16.70
14.66
12.66
11.11
10.38
10.59
11.62
13.14
14.73
16.04
16.94
17.45
17.71
17.82
17.78
17.48
16.76
15.50
13.64
11.24
8.45
5.45
2.49
-0.21
-2.53
-4.45
-6.14
-7.89
-10.07
-13.02
-16.93
-21.73
-27.05
-32.17
-36.11
-37.87
-36.65
-32.19
-24.92
-15.86
-6.34
2.31
9.17
13.84
16.39
17.21
16.72
15.34
13.38
11.18
9.06
7.39
6.44
6.28
6.76
7.58
8.35
8.77
8.69
8.14
7.20
5.97
4.45
2.62
0.47
-1.89
-4.26
-6.34
-7.93
-8.93
-9.49
-9.92
-10.55
-11.70
-13.52
-16.04
-19.17
-22.80
-26.72
-30.58
-33.90
-36.00
-36.23
-34.06
-29.35
-22.41
-14.02
-5.21
2.97
9.68
14.49
17.32
18.40
18.08
16.78
14.95
13.02
11.40
10.37
10.00
10.20
10.74
11.37
11.91
12.26
12.35
12.11
11.46
10.38
8.92
7.22
5.45
3.73
2.09
0.48
-1.18
-2.97
-4.96
-7.29
-10.19
-13.83
-18.24
-23.11
-27.77
-31.26
-32.63
-31.25
-27.05
-20.58
-12.77
-4.70
2.74
8.98
13.82
17.25
19.36
20.24
20.03
18.93
17.19
15.15
13.12
11.33
9.90
8.90
8.36
8.28
8.66
9.39
10.31
11.12
11.50
11.17
9.95
7.83
4.95
1.60
-1.84
-5.03
-7.70
-9.84
-11.66
-13.59
-16.10
-19.50
-23.74
-28.30
-32.32
-34.81
-34.98
-32.40
-27.21
-19.97
-11.48
-2.60
5.90
13.45
19.62
24.16
26.98
28.13
27.80
26.32
24.11
21.68
19.51
18.01
17.38
17.54
18.14
18.65
18.60
17.80
16.35
14.57
12.76
11.01
9.10
6.71
3.62
-0.14
-4.25
-8.26
-11.78
-14.69
-17.09
-19.31
-21.71
-24.58
-27.99
-31.77
-35.46
-38.39
-39.78
-38.96
-35.57
-29.72
-21.93
-13.04
-3.96
4.50
11.71
17.31
21.15
23.21
23.67
22.83
21.15
19.13
17.34
16.22
16.00
16.73
18.18
19.93
21.51
22.48
22.61
21.91
20.63
19.08
17.53
16.05
14.49
12.59
10.12
7.03
3.48
-0.18
-3.63
-6.60
-9.04
-11.04
-12.86
-14.84
-17.38
-20.75
-24.99
-29.73
-34.17
-37.30
-38.14
-36.09
-31.14
-23.93
-15.49
-6.96
0.76
7.19
12.22
16.06
18.90
20.86
21.89
21.91
20.93
19.15
16.97
14.85
13.17
12.11
11.66
11.65
11.87
12.14
12.33
12.32
12.01
11.33
10.23
8.74
6.88
4.68
2.14
-0.73
-3.88
-7.21
-10.52
-13.64
-16.50
-19.18
-21.91
-24.92
-28.20
-31.40
-33.78
-34.43
-32.57
-27.87
-20.62
-11.68
-2.16
6.86
14.58
20.59
24.76
27.12
27.76
26.79
24.38
20.93
17.03
13.43
10.85
9.79
10.29
11.93
13.98
15.58
16.13
15.44
13.71
11.41
8.99
6.69
4.49
2.27
-0.10
-2.54
-4.81
-6.65
-7.95
-8.91
-9.90
-11.36
-13.51
-16.30
-19.52
-22.92
-26.32
-29.56
-32.34
-34.11
-34.16
-31.78
-26.68
-19.16
-10.13
-0.84
7.48
13.95
18.20
20.31
20.65
19.70
17.92
15.74
13.56
11.75
10.62
10.41
11.12
12.53
14.24
15.79
16.77
16.98
16.40
15.13
13.32
11.06
8.38
5.33
2.00
-1.38
-4.52
-7.20
-9.33
-11.01
-12.54
-14.26
-16.51
-19.47
-23.11
-27.20
-31.21
-34.44
-36.08
-35.43
-32.14
-26.29
-18.46
-9.54
-0.52
7.71
14.52
19.50
22.47
23.39
22.38
19.73
16.02
11.95
8.25
5.48
3.88
3.32
3.46
3.95
4.53
5.11
5.71
6.29
6.67
6.57
5.69
3.86
1.12
-2.29
-6.04
-9.80
-13.30
-16.43
-19.16
-21.55
-23.73
-25.74
-27.54
-28.92
-29.53
-28.87
-26.54
-22.37
-16.58
-9.84
-3.08
2.80
7.21
9.99
11.41
11.92
11.92
11.65
11.21
10.66
10.11
9.74
9.69
9.93
10.24
10.29
9.75
8.49
6.57
4.25
1.88
-0.23
-1.85
-2.92
-3.55
-3.99
-4.59
-5.75
-7.80
-10.96
-15.21
-20.18
-25.18
-29.26
-31.40
-30.85
-27.31
-21.10
-13.03
-4.23
4.23
11.49
17.08
20.83
22.79
23.11
22.01
19.78
16.79
13.52
10.48
8.12
6.69
6.21
6.42
6.89
7.21
7.12
6.58
5.70
4.62
3.39
1.94
0.12
-2.27
-5.37
-9.25
-13.91
-19.21
-24.84
-30.24
-34.66
-37.28
-37.43
-34.80
-29.57
-22.37
-14.12
-5.82
1.75
8.03
12.88
16.36
18.67
20.04
20.65
20.64
20.13
19.22
18.02
16.66
15.22
13.80
12.47
11.25
10.14
9.07
8.01
6.93
5.88
4.89
3.93
2.85
1.40
-0.69
-3.66
-7.60
-12.45
-18.04
-24.04
-29.94
-34.97
-38.21
-38.80
-36.22
-30.57
-22.56
-13.27
-3.88
4.68
11.86
17.48
21.52
24.09
25.33
25.45
24.74
23.52
22.08
20.59
19.15
17.83
16.66
15.69
14.91
14.27
13.60
12.74
11.55
9.97
8.03
5.78
3.31
0.68
-2.05
-4.79
-7.50
-10.21
-13.08
-16.36
-20.26
-24.76
-29.48
-33.64
-36.24
-36.37
-33.55
-27.89
-20.08
-11.14
-2.11
6.17
13.20
18.77
22.90
25.71
27.34
28.00
27.91
27.36
26.59
25.84
25.24
24.80
24.46
24.11
23.67
23.17
22.66
22.16
21.60
20.77
19.37
17.14
13.95
9.94
5.43
0.89
-3.29
-6.86
-9.90
-12.71
-15.73
-19.39
-23.90
-29.22
-34.90
-40.22
-44.24
-46.04
-44.88
-40.48
-33.12
-23.60
-13.09
-2.78
6.36
13.81
19.46
23.45
26.04
27.45
27.87
27.53
26.74
25.91
25.42
25.54
26.29
27.43
28.58
29.30
29.24
28.23
26.34
23.82
21.03
18.31
15.86
13.70
11.67
9.55
7.15
4.36
1.23
-2.11
-5.47
-8.70
-11.73
-14.60
-17.42
-20.36
-23.60
-27.23
-31.20
-35.21
-38.65
-40.68
-40.45
-37.31
-31.16
-22.54
-12.55
-2.55
6.25
13.11
17.82
20.68
22.15
22.69
22.68
22.41
22.12
22.02
22.22
22.68
23.28
23.76
23.92
23.68
23.05
22.15
21.05
19.82
18.41
16.78
14.90
12.84
10.66
8.46
6.21
3.80
1.05
-2.14
-5.80
-9.78
-13.82
-17.64
-20.99
-23.68
-25.66
-26.98
-27.86
-28.66
-29.78
-31.48
-33.68
-35.86
-37.18
-36.70
-33.76
-28.21
-20.53
-11.59
-2.41
6.15
13.57
19.63
24.36
27.85
30.21
31.53
31.95
31.68
30.95
30.02
29.03
28.06
27.09
26.11
25.17
24.30
23.54
22.76
21.79
20.42
18.53
16.13
13.39
10.53
7.72
5.07
2.58
0.15
-2.32
-4.92
-7.67
-10.52
-13.38
-16.14
-18.69
-21.08
-23.46
-26.07
-29.12
-32.68
-36.50
-40.09
-42.71
-43.61
-42.26
-38.48
-32.57
-25.14
-17.02
-9.02
-1.80
4.22
8.83
12.02
13.89
14.67
14.62
14.05
13.24
12.47
11.88
11.61
11.62
11.85
12.18
12.45
12.59
12.53
12.32
12.02
11.67
11.26
10.67
9.72
8.20
6.01
3.19
-0.06
-3.43
-6.52
-9.01
-10.74
-11.73
-12.26
-12.74
-13.67
-15.44
-18.19
-21.70
-25.44
-28.60
-30.35
-30.01
-27.30
-22.37
-15.85
-8.65
-1.72
4.15
8.53
11.38
12.89
13.36
13.08
12.31
11.27
10.23
9.44
9.09
9.21
9.68
10.28
10.78
11.03
11.01
10.75
10.32
9.72
8.85
7.66
6.06
4.11
1.94
-0.24
-2.27
-4.12
-5.92
-7.94
-10.48
-13.76
-17.83
-22.51
-27.40
-31.93
-35.41
-37.14
-36.59
-33.57
-28.30
-21.41
-13.75
-6.18
0.64
6.33
10.78
14.01
16.07
16.99
16.85
15.82
14.23
12.46
10.90
9.82
9.30
9.28
9.58
10.01
10.34
10.40
10.01
9.07
7.53
5.46
3.01
0.37
-2.30
-4.88
-7.31
-9.65
-12.07
-14.83
-18.24
-22.49
-27.43
-32.57
-36.98
-39.66
-39.72
-36.76
-30.99
-23.18
-14.40
-5.76
1.91
8.12
12.73
15.85
17.72
18.59
18.73
18.39
17.80
17.15
16.57
16.10
15.68
15.21
14.61
13.88
13.15
12.52
12.04
11.57
10.76
9.19
6.60
3.01
-1.22
-5.52
-9.41
-12.62
-15.26
-17.58
-19.97
-22.68
-25.86
-29.48
-33.30
-36.81
-39.24
-39.74
-37.63
-32.70
-25.35
-16.50
-7.34
1.05
7.96
13.06
16.37
18.09
18.52
18.01
16.92
15.66
14.54
13.77
13.42
13.43
13.65
13.94
14.16
14.23
14.07
13.62
12.83
11.65
10.04
8.00
5.54
2.71
-0.37
-3.57
-6.72
-9.76
-12.72
-15.73
-18.98
-22.55
-26.32
-29.89
-32.61
-33.78
-32.83
-29.53
-24.05
-16.99
-9.20
-1.50
5.39
11.11
15.56
18.86
21.21
22.72
23.41
23.23
22.21
20.48
18.43
16.49
15.03
14.21
13.97
14.07
14.25
14.31
14.16
13.75
13.02
11.87
10.22
8.01
5.30
2.16
-1.34
-5.22
-9.53
-14.33
-19.61
-25.21
-30.81
-35.91
-39.83
-41.84
-41.24
-37.64
-31.12
-22.27
-12.16
-2.02
7.02
14.23
19.32
22.37
23.70
23.72
22.86
21.58
20.36
19.59
19.52
20.18
21.35
22.64
23.67
24.18
24.06
23.36
22.14
20.50
18.45
16.01
13.24
10.25
7.19
4.20
1.34
-1.37
-3.96
-6.51
-9.14
-12.06
-15.58
-19.85
-24.79
-29.82
-34.00
-36.19
-35.50
-31.70
-25.22
-17.07
-8.42
-0.16
7.17
13.40
18.46
22.25
24.59
25.38
24.76
23.13
21.13
19.33
18.11
17.57
17.53
17.69
17.82
17.76
17.51
17.13
16.64
16.03
15.19
14.00
12.36
10.24
7.74
5.03
2.32
-0.28
-2.73
-5.15
-7.70
-10.58
-13.98
-17.92
-22.16
-26.18
-29.22
-30.46
-29.31
-25.60
-19.65
-12.17
-4.06
3.84
10.85
16.48
20.43
22.55
22.91
21.83
19.79
17.42
15.25
13.62
12.67
12.31
12.37
12.60
12.76
12.68
12.28
11.60
10.72
9.75
8.66
7.29
5.41
2.78
-0.61
-4.52
-8.49
-12.00
-14.63
-16.27
-17.14
-17.75
-18.69
-20.40
-22.88
-25.63
-27.77
-28.33
-26.57
-22.30
-15.89
-8.16
-0.07
7.50
13.95
18.95
22.36
24.17
24.45
23.39
21.32
18.70
16.05
13.87
12.46
11.89
11.99
12.39
12.73
12.69
12.11
10.96
9.32
7.26
4.88
2.28
-0.45
-3.16
-5.68
-7.92
-9.93
-11.94
-14.29
-17.23
-20.73
-24.34
-27.30
-28.73
-27.99
-24.90
-19.83
-13.49
-6.73
-0.25
5.52
10.34
14.09
16.67
17.95
17.90
16.62
14.36
11.55
8.67
6.13
4.21
2.96
2.24
1.88
1.70
1.63
1.66
1.79
1.89
1.73
1.02
-0.46
-2.74
-5.67
-9.07
-12.74
-16.59
-20.54
-24.32
-27.46
-29.28
-29.11
-26.52
-21.52
-14.65
-6.82
0.92
7.68
12.91
16.42
18.31
18.84
18.26
16.77
14.59
11.98
9.36
7.19
5.86
5.48
5.85
6.42
6.61
6.02
4.58
2.58
0.47
-1.44
-3.08
-4.71
-6.70
-9.32
-12.61
-16.40
-20.40
-24.31
-27.88
-30.81
-32.68
-32.98
-31.21
-27.10
-20.80
-12.86
-4.19
4.21
11.49
17.12
20.86
22.82
23.25
22.51
20.99
19.04
16.98
15.10
13.61
12.63
12.12
11.89
11.69
11.21
10.22
8.63
6.51
4.04
1.48
-0.97
-3.24
-5.44
-7.79
-10.53
-13.77
-17.51
-21.61
-25.76
-29.57
-32.56
-34.16
-33.85
-31.23
-26.26
-19.34
-11.31
-3.21
4.02
9.75
13.86
16.58
18.28
19.28
19.73
19.64
19.03
18.01
16.80
15.70
14.89
14.38
13.98
13.48
12.71
11.66
10.40
9.06
7.66
6.09
4.18
1.78
-1.14
-4.48
-8.01
-11.53
-14.91
-18.19
-21.50
-25.01
-28.75
-32.46
-35.59
-37.35
-36.96
-33.95
-28.37
-20.88
-12.51
-4.37
2.75
8.46
12.80
16.04
18.44
20.15
21.24
21.78
21.93
21.95
22.07
22.40
22.86
23.21
23.17
22.51
21.21
19.43
17.45
15.54
13.88
12.42
10.93
9.11
6.70
3.68
0.24
-3.27
-6.56
-9.45
-12.00
-14.40
-16.86
-19.52
-22.43
-25.59
-28.91
-32.18
-35.01
-36.82
-36.94
-34.84
-30.32
-23.64
-15.48
-6.84
1.31
8.18
13.38
16.88
18.96
19.95
20.21
19.97
19.44
18.87
18.51
18.55
19.05
19.81
20.44
20.57
19.96
18.70
17.10
15.59
14.44
13.64
12.93
11.91
10.27
7.91
5.00
1.82
-1.35
-4.33
-7.08
-9.62
-11.95
-14.09
-16.08
-18.06
-20.28
-23.01
-26.35
-30.14
-33.85
-36.75
-38.03
-37.08
-33.63
-27.85
-20.28
-11.72
-3.09
4.82
11.46
16.57
20.17
22.40
23.48
23.61
23.01
21.95
20.69
19.55
18.74
18.37
18.38
18.62
18.94
19.19
19.31
19.21
18.83
18.04
16.73
14.87
12.52
9.87
7.12
4.42
1.77
-0.89
-3.69
-6.62
-9.56
-12.32
-14.66
-16.46
-17.78
-18.82
-19.89
-21.29
-23.24
-25.79
-28.75
-31.63
-33.70
-34.19
-32.50
-28.40
-22.17
-14.46
-6.12
2.04
9.39
15.53
20.19
23.25
24.65
24.53
23.19
21.15
18.94
17.03
15.71
15.03
14.81
14.85
14.90
14.83
14.58
14.12
13.43
12.46
11.14
9.38
7.19
4.62
1.87
-0.90
-3.56
-6.10
-8.59
-11.10
-13.58
-15.86
-17.76
-19.20
-20.39
-21.70
-23.49
-25.93
-28.74
-31.29
-32.74
-32.35
-29.65
-24.68
-17.88
-10.03
-2.07
5.14
10.95
15.01
17.29
18.01
17.47
16.09
14.29
12.50
11.08
10.26
10.09
10.39
10.88
11.28
11.41
11.26
10.90
10.48
10.09
9.70
9.19
8.34
6.96
4.97
2.43
-0.45
-3.40
-6.25
-8.96
-11.64
-14.49
-17.61
-20.97
-24.35
-27.35
-29.48
-30.26
-29.33
-26.49
-21.82
-15.68
-8.70
-1.62
4.83
10.11
13.94
16.35
17.54
17.80
17.36
16.39
14.98
13.19
11.20
9.25
7.67
6.70
6.48
6.92
7.76
8.65
9.20
9.17
8.41
6.95
4.91
2.48
-0.15
-2.84
-5.55
-8.31
-11.30
-14.66
-18.48
-22.64
-26.76
-30.23
-32.35
-32.46
-30.18
-25.50
-18.87
-11.06
-3.01
4.41
10.55
15.07
17.92
19.26
19.36
18.49
16.94
14.97
12.83
10.78
9.08
7.95
7.51
7.74
8.46
9.31
9.89
9.84
8.95
7.25
4.93
2.25
-0.55
-3.37
-6.18
-9.03
-11.97
-15.02
-18.21
-21.56
-25.06
-28.55
-31.68
-33.93
-34.64
-33.29
-29.65
-23.90
-16.63
-8.66
-0.87
5.96
11.33
14.99
16.94
17.44
16.93
15.97
15.04
14.45
14.18
13.91
13.22
11.80
9.71
7.40
5.51
4.54
4.59
5.20
5.61
5.03
2.95
-0.73
-5.70
-11.28
-16.50
-20.18
-21.20
-19.00
-14.10
-8.23
-3.98
-3.76
-8.73
-18.10
-29.41
-39.59
-46.28
-48.74
-47.89
-45.52
-43.19
-41.44
-39.70
-36.79
-31.67
-24.04
-14.62
-4.77
4.09
10.96
15.66
18.65
20.76
22.80
25.34
28.67
32.96
38.28
44.64
51.78
59.15
65.93
71.24
74.44
75.27
73.86
70.58
65.87
60.01
53.12
45.16
35.99
25.50
13.75
1.10
-11.72
-23.66
-33.57
-40.41
-43.55
-42.93
-39.14
-33.16
-26.22
-19.45
-13.66
-9.27
-6.35
-4.74
-4.13
-4.15
-4.36
-4.37
-3.82
-2.44
-0.11
3.15
7.16
11.63
16.17
20.39
23.95
26.63
28.33
29.09
28.91
27.81
25.73
22.65
18.66
13.95
8.85
3.65
-1.46
-6.54
-11.82
-17.54
-23.76
-30.15
-35.98
-40.28
-42.10
-40.84
-36.50
-29.65
-21.30
-12.58
-4.48
2.31
7.48
10.97
12.94
13.63
13.31
12.34
11.06
9.86
9.02
8.75
9.08
9.87
10.87
11.82
12.47
12.73
12.58
12.09
11.24
9.99
8.23
5.92
3.11
-0.03
-3.29
-6.53
-9.74
-13.03
-16.56
-20.47
-24.73
-29.10
-33.11
-36.05
-37.16
-35.81
-31.71
-25.08
-16.66
-7.49
1.38
9.12
15.28
19.76
22.61
24.01
24.12
23.15
21.36
19.10
16.73
14.61
12.95
11.81
11.14
10.81
10.69
10.67
10.65
10.57
10.34
9.89
9.12
7.99
6.50
4.71
2.71
0.61
-1.57
-3.84
-6.33
-9.18
-12.55
-16.45
-20.70
-24.82
-28.15
-29.94
-29.59
-26.77
-21.62
-14.70
-6.86
0.93
7.82
13.24
16.93
18.95
19.56
19.07
17.79
15.97
13.83
11.60
9.56
7.95
6.95
6.55
6.57
6.74
6.80
6.54
5.93
4.96
3.65
2.01
0.06
-2.11
-4.40
-6.68
-8.90
-11.09
-13.40
-16.05
-19.18
-22.79
-26.58
-29.98
-32.18
-32.42
-30.16
-25.33
-18.39
-10.21
-1.81
5.87
12.13
16.58
19.06
19.68
18.73
16.71
14.28
12.08
10.57
9.84
9.55
9.09
7.90
5.86
3.50
1.78
1.69
3.62
7.03
10.52
12.40
11.37
7.00
-0.20
-9.15
-18.63
-27.63
-35.30
-40.93
-43.93
-44.00
-41.40
-36.96
-31.76
-26.57
-21.39
-15.53
-8.11
1.07
11.02
19.59
24.40
23.90
18.33
9.81
1.60
-3.10
-2.47
3.39
12.68
22.76
31.33
37.17
40.26
41.22
40.59
38.38
34.13
27.44
18.55
8.49
-1.28
-9.58
-16.08
-21.23
-25.82
-30.27
-34.18
-36.54
-36.27
-32.94
-27.11
-20.19
-13.75
-8.98
-6.30
-5.40
-5.69
-6.77
-8.66
-11.73
-16.35
-22.61
-30.15
-38.23
-46.06
-53.02
-58.85
-63.57
-67.38
-70.54
-73.36
-76.26
-79.90
-85.09
-92.39
-101.60
-111.37
-119.25
-122.36
-118.62
-107.73
-91.59
-73.65
-57.56
-45.77
-38.79
-35.51
-34.18
-33.45
-32.95
-33.15
-34.85
-38.66
-44.81
-53.01
-62.38
-71.26
-77.03
-76.36
-65.85
-43.27
-8.62
35.41
84.00
131.43
172.51
203.75
223.74
232.95
233.15
226.77
216.47
204.86
194.23
186.25
181.78
180.75
182.58
186.62
192.76
201.52
213.67
229.42
247.78
266.33
281.62
290.08
289.06
277.44
255.68
225.34
188.29
146.14
99.83
49.62
-4.68
-63.45
-126.73
-193.69
-262.12
-328.26
-387.42
-435.14
-468.78
-488.77
-498.72
-504.17
-510.15
-518.68
-527.59
-531.26
-523.23
-499.14
-458.47
-404.59
-343.25
-280.43
-220.84
-167.30
-120.76
-80.59
-44.76
-9.86
28.55
74.98
132.56
201.63
279.08
358.99
434.12
497.80
545.38
574.84
586.28
581.08
561.13
528.75
487.06
440.10
392.22
347.15
306.95
272.03
241.90
216.07
194.37
176.33
159.72
139.92
110.62
66.40
5.91
-65.97
-138.40
-197.91
-233.10
-238.61
-216.27
-173.12
-117.94
-57.95
2.44
60.77
114.74
161.16
196.47
218.24
226.39
223.03
211.16
192.98
169.20
139.79
105.09
66.74
27.47
-9.82
-43.15
-71.70
-95.77
-116.15
-133.74
-149.27
-163.23
-175.87
-187.08
-196.37
-203.03
-206.39
-206.21
-202.92
-197.56
-191.36
-185.22
-179.26
-172.79
-164.64
-153.81
-140.07
-124.19
-107.70
-92.29
-79.25
-69.05
-61.38
-55.52
-50.75
-46.62
-42.95
-39.68
-36.76
-34.07
-31.49
-28.95
-26.41
-23.83
-21.18
-18.46
-15.71
-13.04
-10.58
-8.49
-6.88
-5.83
-5.41
-5.64
-6.50
-7.86
-9.51
-11.26
-13.01
-14.83
-16.87
-19.23
-21.83
-24.31
-26.06
-26.39
-24.79
-21.04
-15.42
-8.54
-1.30
5.40
10.85
14.64
16.65
16.95
15.72
13.21
9.76
5.84
1.95
-1.46
-4.12
-6.07
-7.55
-8.89
-10.38
-12.21
-14.44
-17.12
-20.28
-24.00
-28.38
-33.60
-39.88
-47.41
-56.19
-65.88
-75.72
-84.60
-91.41
-95.35
-96.16
-93.97
-89.11
-81.84
-72.36
-61.00
-48.40
-35.47
-23.21
-12.42
-3.45
3.70
9.37
14.13
18.74
24.15
31.28
40.78
52.65
66.19
80.22
93.42
104.74
113.48
119.31
122.11
122.00
119.38
115.02
109.84
104.57
99.34
93.62
86.43
76.88
64.68
50.36
35.13
20.44
7.64
-2.45
-9.65
-14.48
-18.08
-21.87
-27.28
-35.22
-45.69
-57.57
-68.93
-77.60
-82.11
-82.07
-78.23
-72.02
-64.83
-57.66
-50.92
-44.57
-38.20
-31.08
-22.16
-10.19
5.84
26.23
50.20
75.92
101.00
123.16
140.79
153.13
160.18
162.40
160.63
155.88
149.22
141.52
133.26
124.44
114.76
103.99
92.24
80.14
68.66
58.73
50.92
45.27
41.31
38.25
35.15
31.12
25.42
17.60
7.58
-4.24
-17.10
-30.18
-42.94
-55.44
-68.26
-82.18
-97.57
-113.89
-129.62
-142.94
-152.73
-159.23
-163.96
-168.71
-174.41
-180.45
-185.06
-186.45
-183.78
-177.46
-168.36
-156.80
-141.90
-122.14
-96.59
-66.14
-33.72
-3.15
22.57
42.60
58.34
72.28
86.42
101.19
115.48
127.51
136.07
141.06
143.33
143.85
142.97
140.26
134.93
126.65
115.93
104.09
92.62
82.56
74.25
67.51
62.01
57.49
53.84
50.84
48.03
44.88
40.99
36.33
31.30
26.42
22.02
18.03
13.94
9.10
2.90
-5.01
-14.64
-25.64
-37.14
-47.84
-56.09
-60.31
-59.37
-53.02
-42.15
-28.70
-15.26
-4.38
2.14
3.77
1.34
-3.42
-8.64
-12.97
-15.82
-17.27
-17.73
-17.65
-17.55
-17.98
-19.56
-22.73
-27.44
-33.02
-38.38
-42.59
-45.36
-47.25
-49.19
-51.68
-54.10
-54.63
-50.85
-40.89
-24.41
-2.92
20.60
42.75
60.87
73.71
81.36
84.80
85.12
83.04
78.93
72.90
65.14
55.90
45.60
34.73
23.90
13.96
5.86
0.47
-1.79
-1.25
1.08
3.84
5.93
6.84
6.65
5.65
3.97
1.30
-2.81
-8.58
-15.63
-23.00
-29.54
-34.33
-36.98
-37.54
-36.16
-32.86
-27.54
-20.21
-11.28
-1.57
7.81
15.86
22.06
26.38
29.17
30.79
31.42
30.98
29.25
26.00
21.14
14.65
6.70
-2.31
-11.54
-19.74
-25.51
-27.85
-26.73
-23.27
-19.34
-16.80
-16.57
-18.45
-21.36
-24.16
-26.36
-28.34
-30.94
-34.81
-39.98
-45.83
-51.52
-56.47
-60.66
-64.44
-68.23
-72.03
-75.38
-77.45
-77.45
-74.97
-70.20
-63.93
-57.32
-51.61
-47.83
-46.51
-47.59
-50.48
-54.28
-58.14
-61.55
-64.47
-67.18
-69.91
-72.59
-74.81
-75.98
-75.70
-73.91
-70.79
-66.52
-61.03
-54.03
-45.28
-34.98
-23.97
-13.46
-4.66
1.77
5.89
8.23
9.41
9.97
10.42
11.67
15.20
22.79
35.83
54.47
77.23
101.28
123.31
140.52
151.31
155.37
153.45
146.78
136.80
124.91
112.36
100.17
88.99
79.18
70.87
64.09
58.75
54.54
50.86
46.94
42.19
36.53
30.51
24.94
20.60
17.68
15.81
14.30
12.58
10.43
8.00
5.56
3.13
0.42
-3.10
-7.86
-13.95
-21.06
-28.64
-36.12
-42.99
-48.81
-53.08
-55.20
-54.65
-51.23
-45.30
-37.83
-30.11
-23.36
-18.31
-15.05
-13.19
-12.17
-11.58
-11.38
-11.71
-12.72
-14.31
-16.00
-17.12
-17.07
-15.74
-13.66
-11.81
-11.25
-12.64
-15.91
-20.34
-24.84
-28.45
-30.78
-32.06
-33.06
-34.63
-37.35
-41.34
-46.24
-51.47
-56.38
-60.43
-63.11
-63.97
-62.59
-58.80
-52.89
-45.69
-38.50
-32.70
-29.33
-28.77
-30.69
-34.36
-38.95
-43.83
-48.57
-52.80
-55.97
-57.24
-55.67
-50.55
-41.72
-29.78
-15.93
-1.63
11.79
23.28
32.04
37.36
38.53
34.95
26.37
13.29
-2.93
-20.24
-36.40
-49.54
-58.69
-63.82
-65.69
-65.35
-63.68
-61.13
-57.54
-52.38
-44.89
-34.29
-19.98
-1.73
20.18
44.87
70.95
96.96
121.69
144.47
165.03
183.20
198.48
210.02
216.97
219.05
216.92
212.02
205.81
198.93
190.68
179.37
163.22
141.55
115.36
87.21
60.27
37.26
19.66
7.54
-0.09
-4.72
-7.76
-10.30
-12.99
-16.22
-20.11
-24.67
-29.76
-35.09
-40.19
-44.46
-47.34
-48.54
-48.22
-47.00
-45.79
-45.40
-46.16
-47.76
-49.40
-50.20
-49.72
-48.23
-46.62
-46.03
-47.30
-50.54
-55.14
-60.12
-64.59
-68.11
-70.70
-72.51
-73.56
-73.52
-71.88
-68.24
-62.66
-55.67
-48.12
-40.85
-34.36
-28.76
-23.92
-19.73
-16.31
-13.94
-12.89
-13.08
-14.01
-14.83
-14.72
-13.25
-10.59
-7.40
-4.51
-2.56
-1.86
-2.36
-3.88
-6.27
-9.38
-13.07
-17.16
-21.50
-26.01
-30.68
-35.55
-40.58
-45.69
-50.85
-56.15
-61.72
-67.51
-72.90
-76.74
-77.58
-74.37
-67.01
-56.57
-44.92
-34.00
-25.10
-18.58
-14.04
-10.87
-8.71
-7.52
-7.49
-8.65
-10.72
-13.23
-15.62
-17.47
-18.38
-17.84
-15.23
-9.97
-2.03
7.77
17.70
25.73
30.32
31.20
29.44
26.99
25.74
26.82
30.30
35.46
41.32
47.04
52.13
56.33
59.58
62.02
64.04
66.36
69.73
74.69
81.24
88.86
96.77
104.28
111.06
117.04
122.13
125.93
127.68
126.47
121.75
113.63
103.00
91.21
79.55
68.83
59.32
50.88
43.31
36.57
30.76
25.95
21.91
18.07
13.62
7.97
1.06
-6.51
-13.79
-19.92
-24.68
-28.64
-32.84
-38.21
-45.04
-52.83
-60.53
-67.12
-72.12
-75.66
-78.17
-79.83
-80.24
-78.50
-73.61
-65.03
-53.00
-38.57
-23.24
-8.64
3.89
13.38
19.26
21.19
19.02
12.80
2.85
-10.03
-24.60
-39.19
-52.07
-61.82
-67.68
-69.58
-68.01
-63.64
-57.00
-48.38
-38.03
-26.40
-14.39
-3.23
5.83
12.01
15.32
16.54
16.91
17.57
19.17
21.61
24.07
25.22
23.67
18.37
9.00
-3.80
-18.56
-33.24
-45.74
-54.28
-57.66
-55.31
-47.38
-34.65
-18.57
-1.09
15.74
30.25
41.61
50.01
56.32
61.47
65.94
69.47
71.39
71.18
68.89
65.26
61.37
58.12
55.86
54.36
53.04
51.41
49.25
46.51
43.11
38.77
33.13
26.04
17.95
9.87
3.14
-1.21
-2.93
-2.67
-1.77
-1.67
-3.45
-7.49
-13.46
-20.48
-27.32
-32.71
-35.42
-34.55
-29.65
-20.87
-8.99
4.69
18.60
31.19
41.18
47.70
50.32
49.18
44.98
39.04
33.08
28.81
27.42
29.10
33.08
37.99
42.54
45.95
48.05
48.95
48.51
46.30
41.79
34.91
26.45
17.82
10.53
5.38
2.17
-0.13
-2.72
-6.36
-11.16
-16.76
-22.74
-28.80
-34.69
-39.93
-43.65
-44.79
-42.59
-37.02
-28.92
-19.77
-11.07
-3.95
1.12
4.14
5.36
5.04
3.37
0.68
-2.53
-5.59
-7.77
-8.49
-7.50
-4.91
-1.17
3.06
7.13
10.56
13.12
14.82
15.80
16.17
15.97
15.14
13.58
11.19
7.87
3.48
-2.14
-9.16
-17.62
-27.34
-37.78
-48.04
-57.01
-63.52
-66.61
-65.71
-60.85
-52.64
-42.22
-30.97
-20.29
-11.36
-4.98
-1.55
-0.99
-2.84
-6.28
-10.35
-14.28
-17.54
-20.02
-21.79
-22.95
-23.55
-23.58
-23.10
-22.44
-22.04
-22.35
-23.53
-25.41
-27.57
-29.71
-31.83
-34.29
-37.57
-41.92
-47.10
-52.37
-56.79
-59.61
-60.44
-59.21
-55.94
-50.48
-42.42
-31.31
-16.98
0.13
18.89
37.61
54.49
68.10
77.68
83.25
85.39
84.88
82.35
78.23
72.83
66.67
60.54
55.48
52.49
52.12
54.37
58.71
64.31
70.29
75.78
80.00
82.24
81.98
79.07
73.78
66.74
58.70
50.18
41.30
31.74
20.95
8.50
-5.64
-20.90
-36.20
-50.23
-61.80
-70.15
-75.06
-76.84
-76.13
-73.72
-70.41
-66.95
-63.93
-61.65
-60.06
-58.82
-57.42
-55.49
-52.92
-49.89
-46.58
-42.91
-38.49
-32.68
-24.95
-15.07
-3.29
9.87
23.71
37.49
50.47
61.78
70.56
76.13
78.16
76.87
72.89
67.05
60.06
52.39
44.19
35.46
26.13
16.18
5.80
-4.41
-13.39
-19.71
-22.02
-19.59
-12.83
-3.26
7.02
16.03
22.61
26.50
28.08
27.82
25.96
22.58
17.92
12.57
7.49
3.60
1.39
0.72
0.97
1.44
1.65
1.51
1.11
0.49
-0.42
-1.86
-4.03
-6.99
-10.60
-14.59
-18.70
-22.68
-26.36
-29.60
-32.41
-34.94
-37.51
-40.43
-43.84
-47.38
-50.18
-51.11
-49.14
-43.85
-35.56
-25.31
-14.47
-4.34
4.15
10.52
14.60
16.43
16.14
14.00
10.49
6.33
2.46
-0.20
-0.98
0.23
2.97
6.32
9.23
10.93
11.20
10.39
9.09
7.84
6.81
5.79
4.33
2.06
-1.15
-5.21
-9.84
-14.79
-19.96
-25.35
-31.04
-37.05
-43.18
-48.93
-53.51
-56.00
-55.62
-52.05
-45.53
-36.91
-27.40
-18.25
-10.48
-4.72
-1.31
-0.32
-1.73
-5.37
-10.85
-17.52
-24.53
-31.09
-36.64
-40.97
-44.18
-46.48
-47.96
-48.63
-48.49
-47.70
-46.65
-45.80
-45.45
-45.54
-45.72
-45.53
-44.69
-43.10
-40.81
-37.85
-34.16
-29.71
-24.55
-18.85
-12.81
-6.38
0.81
9.42
20.06
32.97
47.80
63.65
79.35
93.72
105.90
115.43
122.19
126.36
128.20
128.01
126.14
122.95
118.86
114.28
109.54
104.83
100.18
95.55
90.91
86.19
81.29
75.89
69.56
61.87
52.60
41.91
30.28
18.39
6.77
-4.23
-14.49
-24.03
-32.86
-41.01
-48.55
-55.70
-62.66
-69.51
-76.03
-81.66
-85.65
-87.29
-86.10
-81.93
-74.99
-65.72
-54.80
-43.06
-31.45
-20.94
-12.38
-6.37
-3.14
-2.54
-4.00
-6.65
-9.49
-11.61
-12.47
-11.89
-10.11
-7.54
-4.58
-1.51
1.54
4.54
7.47
10.30
12.97
15.39
17.43
18.82
19.15
18.08
15.44
11.40
6.51
1.47
-3.13
-7.00
-10.35
-13.67
-17.49
-22.12
-27.40
-32.74
-37.37
-40.49
-41.55
-40.28
-36.73
-31.26
-24.49
-17.19
-10.14
-3.91
1.22
5.17
7.98
9.62
9.93
8.82
6.39
3.11
-0.35
-3.34
-5.43
-6.52
-6.73
-6.19
-4.99
-3.25
-1.31
0.26
0.78
-0.28
-3.02
-7.06
-11.81
-16.73
-21.58
-26.45
-31.52
-36.86
-42.28
-47.40
-51.95
-55.87
-59.43
-62.92
-66.40
-69.44
-71.15
-70.45
-66.47
-58.86
-47.87
-34.24
-18.93
-2.96
12.66
26.94
38.88
47.72
53.08
55.20
54.87
53.16
51.10
49.33
48.04
46.99
45.72
43.80
40.97
37.28
32.98
28.42
23.86
19.39
14.88
10.16
5.14
-0.04
-5.16
-9.98
-14.34
-18.28
-21.96
-25.73
-30.08
-35.53
-42.36
-50.16
-57.53
-62.29
-61.99
-54.69
-39.43
-16.33
13.80
49.77
90.08
132.67
174.71
212.80
243.59
264.62
274.87
274.72
265.53
249.14
227.54
202.64
176.07
148.89
121.44
93.60
65.38
37.55
11.65
-10.49
-27.76
-40.51
-50.36
-59.28
-68.44
-77.72
-86.01
-92.22
-96.08
-98.30
-99.98
-101.82
-103.71
-104.93
-104.84
-103.38
-101.20
-99.35
-98.85
-100.29
-103.78
-108.92
-114.76
-119.85
-122.37
-120.71
-114.02
-102.71
-88.44
-73.40
-59.48
-47.67
-37.93
-29.81
-23.03
-17.84
-14.83
-14.30
-15.79
-18.03
-19.45
-18.92
-16.25
-12.15
-7.76
-3.91
-0.81
1.89
4.57
7.28
9.44
10.25
9.13
6.14
2.12
-1.78
-4.53
-5.76
-5.82
-5.57
-6.02
-7.83
-11.04
-15.11
-19.03
-21.70
-22.28
-20.36
-16.03
-9.75
-2.21
5.79
13.46
20.18
25.56
29.46
32.00
33.45
34.04
33.96
33.32
32.21
30.80
29.28
27.82
26.48
25.22
23.97
22.69
21.36
19.87
18.00
15.42
11.87
7.35
2.21
-3.00
-7.76
-11.87
-15.57
-19.41
-23.94
-29.39
-35.47
-41.46
-46.39
-49.38
-49.88
-47.74
-43.14
-36.51
-28.42
-19.53
-10.57
-2.29
4.70
10.03
13.67
15.84
16.90
17.14
16.72
15.67
14.00
11.80
9.32
6.90
4.91
3.70
3.47
4.19
5.60
7.16
8.17
8.02
6.39
3.35
-0.72
-5.30
-9.96
-14.52
-19.07
-23.79
-28.88
-34.27
-39.59
-44.06
-46.71
-46.55
-42.96
-35.90
-26.01
-14.45
-2.53
8.59
18.21
26.01
31.93
36.01
38.31
38.93
38.19
36.60
34.79
33.36
32.59
32.40
32.49
32.48
32.23
31.85
31.64
31.77
32.09
32.06
30.97
28.21
23.63
17.60
10.89
4.30
-1.65
-6.91
-11.89
-17.06
-22.78
-29.02
-35.38
-41.25
-46.00
-49.09
-50.07
-48.62
-44.54
-37.86
-29.02
-18.90
-8.61
0.79
8.65
14.92
19.94
24.18
27.83
30.73
32.50
32.84
31.86
30.08
28.27
27.07
26.77
27.20
27.93
28.51
28.64
28.26
27.36
26.00
24.18
21.94
19.46
17.06
15.04
13.49
12.05
9.82
5.53
-2.02
-13.33
-27.63
-42.88
-56.34
-65.55
-69.23
-67.75
-62.71
-56.19
-49.77
-44.10
-39.04
-34.16
-29.25
-24.55
-20.55
-17.67
-16.07
-15.59
-15.94
-16.88
-18.23
-19.90
-21.73
-23.63
-25.40
-26.80
-27.66
-27.82
-27.21
-25.87
-23.97
-21.86
-20.09
-19.34
-20.25
-23.26
-28.40
-35.25
-43.12
-51.21
-58.84
-65.56
-71.20
-75.83
-79.69
-83.14
-86.36
-89.13
-90.63
-89.66
-84.97
-75.85
-62.42
-45.63
-26.94
-7.80
10.73
28.18
44.59
60.26
75.34
89.57
102.22
112.30
119.01
122.18
122.48
121.26
120.07
120.25
122.67
127.83
135.91
146.79
159.79
173.61
186.52
196.83
203.47
206.13
205.11
200.77
193.22
182.34
168.04
150.58
130.56
108.76
85.79
61.98
37.61
13.12
-10.55
-32.09
-50.06
-63.25
-71.01
-73.40
-71.11
-65.29
-57.31
-48.48
-39.92
-32.39
-26.28
-21.68
-18.42
-16.22
-14.75
-13.73
-12.92
-12.10
-10.99
-9.32
-6.90
-3.86
-0.67
2.03
3.61
3.82
2.69
0.45
-2.82
-7.20
-12.86
-19.70
-27.14
-34.29
-40.40
-45.29
-49.63
-54.57
-61.20
-70.02
-80.75
-92.59
-104.65
-116.30
-127.23
-137.24
-145.99
-152.88
-157.16
-158.10
-155.29
-148.64
-138.49
-125.50
-110.62
-94.87
-79.16
-64.03
-49.44
-34.90
-19.68
-3.10
15.30
35.73
58.36
83.23
110.20
138.57
167.01
193.52
215.87
232.01
240.54
240.93
233.54
219.44
200.19
177.54
153.14
128.29
103.81
80.01
56.93
34.54
12.92
-7.65
-26.77
-43.93
-58.55
-70.07
-77.95
-81.82
-81.59
-77.60
-70.55
-61.42
-51.35
-41.43
-32.56
-25.45
-20.53
-17.95
-17.54
-18.83
-21.09
-23.45
-25.09
-25.47
-24.42
-22.08
-18.83
-15.12
-11.45
-8.29
-6.09
-5.20
-5.75
-7.56
-10.15
-12.94
-15.44
-17.51
-19.33
-21.32
-23.90
-27.32
-31.51
-36.13
-40.75
-44.90
-48.39
-51.36
-54.22
-57.50
-61.60
-66.44
-71.34
-75.13
-76.46
-74.39
-68.85
-60.93
-52.52
-45.78
-42.28
-42.50
-45.60
-49.81
-53.06
-53.62
-50.55
-43.77
-34.00
-22.49
-10.83
-0.66
6.65
10.46
11.10
9.77
8.14
7.74
9.35
12.86
17.44
22.07
26.02
29.15
31.85
34.65
37.98
41.87
46.05
50.11
53.70
56.65
58.88
60.26
60.48
59.13
55.90
50.98
45.20
39.88
36.41
35.62
37.43
40.85
44.38
46.72
47.17
45.77
43.05
39.57
35.59
31.01
25.62
19.36
12.55
5.69
-0.58
-5.85
-9.90
-12.71
-14.29
-14.70
-14.10
-12.83
-11.46
-10.66
-10.98
-12.67
-15.60
-19.34
-23.44
-27.53
-31.40
-34.87
-37.67
-39.47
-40.05
-39.46
-38.10
-36.59
-35.55
-35.33
-35.91
-36.96
-37.97
-38.42
-37.79
-35.54
-31.22
-24.55
-15.61
-4.95
6.49
17.58
27.21
34.59
39.34
41.51
41.44
39.66
36.67
32.82
28.30
23.25
17.90
12.67
8.04
4.38
1.75
-0.20
-1.98
-3.98
-6.21
-8.31
-9.85
-10.54
-10.46
-9.98
-9.45
-9.10
-8.98
-9.09
-9.59
-10.75
-12.85
-15.93
-19.70
-23.64
-27.24
-30.32
-33.04
-35.79
-38.87
-42.17
-45.14
-46.80
-46.08
-42.18
-34.86
-24.60
-12.51
-0.04
11.38
20.69
27.37
31.37
33.01
32.75
31.11
28.64
25.92
23.50
21.74
20.77
20.39
20.22
19.94
19.49
19.09
19.08
19.70
20.86
22.10
22.85
22.59
21.15
18.68
15.56
12.24
9.06
6.19
3.65
1.29
-1.19
-4.16
-7.99
-12.95
-18.95
-25.51
-31.70
-36.40
-38.52
-37.38
-32.89
-25.60
-16.51
-6.80
2.46
10.52
16.96
21.66
24.70
26.23
26.41
25.37
23.24
20.21
16.59
12.83
9.42
6.79
5.13
4.37
4.22
4.24
4.07
3.43
2.12
0.00
-3.15
-7.62
-13.61
-21.26
-30.51
-41.27
-53.44
-67.01
-82.04
-98.45
-115.81
-133.33
-149.90
-164.31
-175.39
-182.14
-183.74
-179.54
-169.17
-152.72
-130.79
-104.61
-75.92
-46.65
-18.62
6.77
28.64
46.61
60.70
71.25
78.89
84.58
89.58
95.27
102.83
112.88
125.16
138.56
151.52
162.46
170.24
174.35
174.74
171.65
165.36
156.10
144.00
129.08
111.38
91.23
69.43
47.38
26.90
9.90
-2.16
-8.56
-9.32
-5.13
2.84
13.01
23.45
32.05
36.92
36.89
31.88
22.75
10.87
-2.64
-17.22
-32.75
-48.98
-65.03
-79.40
-90.48
-97.26
-99.76
-99.01
-96.44
-93.23
-89.85
-86.13
-81.45
-75.18
-66.87
-56.29
-43.46
-28.68
-12.56
3.99
19.87
34.07
45.66
53.88
58.01
57.37
51.57
40.75
25.91
9.05
-7.06
-19.42
-25.45
-23.61
-13.81
2.62
23.25
44.98
64.47
78.54
84.57
80.95
67.43
45.48
18.27
-9.82
-34.02
-50.41
-56.76
-53.17
-41.86
-26.38
-10.59
2.52
11.43
16.26
18.25
18.91
19.15
18.91
17.12
12.36
3.47
-9.84
-26.67
-45.00
-62.17
-75.52
-83.17
-84.42
-79.90
-71.14
-60.01
-48.18
-36.82
-26.62
-17.95
-10.93
-5.50
-1.29
2.37
6.25
10.84
16.18
21.79
26.98
31.14
34.04
35.87
37.04
37.93
38.57
38.62
37.49
34.64
29.85
23.32
15.55
7.14
-1.41
-9.81
-17.93
-25.76
-33.30
-40.65
-47.90
-55.00
-61.57
-66.70
-69.06
-67.29
-60.53
-48.93
-33.75
-17.03
-0.89
13.32
25.40
36.16
46.70
57.59
68.36
77.73
84.24
86.96
85.77
80.89
72.56
60.98
46.95
32.54
21.08
15.98
18.99
28.95
41.98
53.15
58.64
57.12
49.59
38.11
24.33
8.92
-8.01
-25.94
-43.49
-58.79
-70.40
-77.94
-81.98
-83.34
-82.33
-78.48
-70.94
-59.25
-43.91
-26.49
-9.13
6.13
17.90
25.63
29.48
30.01
27.99
24.23
19.61
14.98
11.05
8.26
6.66
6.04
6.13
6.82
8.22
10.52
13.74
17.47
20.87
22.88
22.60
19.67
14.37
7.56
0.26
-6.77
-13.27
-19.51
-25.99
-33.12
-40.77
-48.17
-53.95
-56.62
-55.00
-48.80
-38.83
-26.79
-14.87
-5.01
1.59
4.70
4.89
3.11
0.20
-3.33
-7.27
-11.36
-15.06
-17.42
-17.29
-13.74
-6.26
5.04
19.51
36.00
52.92
68.43
80.68
88.15
90.03
86.40
78.16
66.64
53.22
38.99
24.68
10.77
-2.30
-13.90
-23.24
-29.44
-31.68
-29.46
-22.72
-12.10
1.08
15.01
27.72
37.59
43.57
45.32
43.16
37.85
30.43
22.12
14.23
7.91
3.94
2.49
3.07
4.70
6.33
7.11
6.68
5.08
2.54
-0.65
-4.28
-8.21
-12.35
-16.66
-21.17
-25.94
-30.93
-36.04
-41.10
-45.98
-50.65
-55.06
-59.01
-61.83
-62.52
-60.01
-53.73
-43.95
-31.91
-19.41
-8.21
0.47
6.13
8.91
9.24
7.63
4.53
0.41
-4.23
-8.90
-13.21
-16.90
-19.79
-21.69
-22.36
-21.56
-19.27
-15.80
-11.79
-8.03
-5.15
-3.44
-2.72
-2.41
-1.68
0.38
4.52
11.12
19.94
30.12
40.36
49.24
55.76
59.61
61.34
62.12
63.28
65.84
70.15
75.84
81.96
87.37
91.10
92.69
92.26
90.31
87.42
83.95
79.92
75.04
69.05
61.89
53.91
45.82
38.47
32.61
28.62
26.44
25.61
25.49
25.42
24.85
23.40
20.88
17.25
12.61
7.15
1.09
-5.40
-12.24
-19.47
-27.08
-34.97
-42.86
-50.39
-57.30
-63.64
-69.85
-76.55
-84.21
-92.86
-101.92
-110.34
-116.92
-120.54
-120.41
-116.09
-107.67
-95.74
-81.49
-66.56
-52.65
-41.06
-32.35
-26.23
-21.86
-18.39
-15.21
-12.11
-9.04
-5.90
-2.54
1.13
4.94
8.49
11.37
13.49
15.28
17.55
21.12
26.27
32.43
38.15
41.72
41.91
38.59
32.85
26.52
21.37
18.34
17.25
17.05
16.48
14.58
10.92
5.53
-1.40
-9.59
-18.58
-27.43
-34.72
-38.73
-37.95
-31.66
-20.18
-4.86
12.37
29.55
45.20
58.48
69.14
77.31
83.15
86.77
88.17
87.31
84.13
78.59
70.69
60.61
48.99
37.02
26.32
18.39
14.01
12.76
13.15
13.23
11.46
7.42
1.79
-4.13
-9.26
-13.39
-17.24
-22.00
-28.49
-36.59
-45.26
-53.02
-58.67
-61.75
-62.55
-61.76
-60.20
-58.92
-59.47
-63.67
-72.86
-86.61
-101.97
-113.94
-117.23
-108.55
-88.15
-59.67
-28.32
1.43
27.42
49.83
69.78
87.82
103.02
113.30
116.63
112.22
101.08
85.79
69.55
55.12
44.01
36.20
30.51
25.36
19.63
13.07
6.32
0.44
-3.77
-6.23
-7.72
-9.48
-12.60
-17.49
-23.68
-30.01
-35.27
-38.70
-40.33
-40.81
-41.06
-41.65
-42.69
-43.83
-44.66
-44.97
-44.91
-44.80
-44.69
-44.03
-41.67
-36.25
-26.86
-13.63
2.05
17.93
31.62
41.35
46.43
47.19
44.64
39.89
33.89
27.32
20.67
14.42
8.96
4.58
1.33
-0.96
-2.62
-4.03
-5.52
-7.28
-9.30
-11.41
-13.39
-15.11
-16.62
-18.12
-19.85
-21.94
-24.46
-27.41
-30.86
-34.87
-39.43
-44.31
-49.09
-53.28
-56.40
-58.14
-58.17
-56.12
-51.54
-44.09
-33.94
-21.83
-9.09
2.80
12.69
20.12
25.16
28.21
29.57
29.27
27.26
23.69
19.08
14.30
10.24
7.46
6.01
5.47
5.27
5.01
4.57
4.08
3.66
3.26
2.61
1.32
-0.87
-4.09
-8.24
-13.17
-18.87
-25.53
-33.71
-44.00
-56.75
-71.52
-86.86
-100.38
-109.40
-111.78
-106.58
-94.42
-77.12
-57.21
-37.50
-20.86
-10.12
-7.55
-14.21
-29.19
-49.58
-71.17
-89.87
-103.04
-109.92
-111.20
-107.88
-100.35
-88.30
-71.35
-49.88
-25.31
0.24
24.71
46.65
65.34
80.48
92.01
100.14
105.54
109.38
112.99
117.40
122.90
128.95
134.70
139.37
142.50
143.78
142.64
138.22
129.60
116.48
99.76
81.46
64.10
49.60
38.47
29.65
21.16
11.19
-1.04
-14.97
-29.08
-41.56
-50.99
-56.70
-58.82
-58.13
-55.93
-53.74
-52.99
-54.56
-58.33
-63.12
-67.07
-68.52
-66.71
-62.17
-56.48
-51.54
-48.76
-48.52
-50.11
-52.02
-52.45
-49.77
-43.02
-32.13
-17.95
-2.01
14.01
28.87
42.22
54.66
67.28
81.07
96.25
112.14
127.46
140.90
151.72
159.82
165.52
169.08
170.47
169.37
165.60
159.37
151.43
142.88
134.77
127.71
121.73
116.34
110.64
103.49
93.72
80.37
63.09
42.45
19.94
-2.52
-23.20
-41.20
-56.47
-69.34
-79.96
-87.96
-92.78
-94.35
-93.62
-92.51
-93.12
-96.61
-102.50
-108.74
-112.49
-111.41
-104.51
-92.44
-77.15
-61.05
-46.23
-33.97
-24.60
-17.78
-12.88
-9.43
-7.33
-6.80
-8.05
-11.04
-15.25
-19.84
-23.89
-26.73
-28.12
-28.11
-26.93
-24.77
-21.88
-18.69
-15.89
-14.33
-14.77
-17.53
-22.30
-28.39
-34.92
-41.16
-46.76
-51.64
-55.99
-60.18
-64.76
-70.43
-77.90
-87.52
-98.85
-110.56
-120.68
-127.20
-128.89
-125.76
-119.02
-110.55
-102.07
-94.61
-88.34
-82.92
-77.97
-73.36
-69.22
-65.59
-62.13
-58.06
-52.36
-44.12
-32.71
-17.86
0.48
22.10
46.37
72.06
97.36
120.16
138.66
151.82
159.65
163.04
163.40
162.22
160.92
160.73
162.54
166.73
172.76
179.12
183.49
183.50
177.46
165.01
147.31
126.56
105.39
86.01
69.82
57.27
48.20
42.17
38.80
37.81
38.84
41.30
44.33
46.81
47.69
46.11
41.60
34.05
23.78
11.50
-1.76
-14.71
-26.13
-35.05
-41.01
-44.17
-45.20
-45.08
-44.79
-45.09
-46.33
-48.43
-50.99
-53.50
-55.51
-56.85
-57.64
-58.29
-59.37
-61.53
-65.21
-70.33
-76.09
-80.99
-83.17
-81.06
-73.95
-62.31
-47.60
-31.76
-16.61
-3.48
6.88
14.18
18.41
19.75
18.56
15.39
10.92
5.81
0.56
-4.60
-9.59
-14.32
-18.54
-21.78
-23.45
-23.12
-20.78
-16.97
-12.63
-8.87
-6.59
-6.32
-8.16
-11.90
-17.18
-23.53
-30.44
-37.43
-44.07
-50.03
-55.01
-58.56
-60.14
-59.16
-55.29
-48.57
-39.63
-29.48
-19.37
-10.46
-3.68
0.37
1.46
-0.19
-3.95
-8.94
-14.27
-19.34
-23.98
-28.35
-32.65
-36.79
-40.41
-43.09
-44.75
-45.76
-46.97
-49.28
-53.29
-59.01
-65.96
-73.44
-80.79
-87.55
-93.46
-98.38
-102.23
-104.90
-106.25
-105.90
-103.12
-96.82
-85.71
-68.70
-45.37
-16.29
16.97
52.05
86.34
117.46
143.62
163.68
177.01
183.38
182.87
176.05
164.19
149.34
134.20
121.52
113.36
110.45
111.73
114.49
115.00
109.57
95.80
73.69
46.09
18.16
-4.12
-15.98
-15.66
-5.15
10.63
25.64
34.94
36.12
29.58
17.83
4.32
-7.60
-15.42
-17.90
-15.19
-8.81
-1.28
4.60
6.73
4.58
-0.52
-5.77
-8.09
-5.31
2.83
14.51
26.44
35.10
37.87
33.83
23.92
10.29
-4.54
-18.53
-30.43
-39.73
-46.22
-49.73
-50.16
-47.74
-43.38
-38.64
-35.33
-34.88
-37.72
-43.03
-49.01
-53.54
-55.02
-52.92
-47.88
-41.39
-35.21
-30.81
-28.99
-29.81
-32.77
-36.93
-41.02
-43.34
-41.90
-34.84
-21.26
-1.97
20.24
41.19
56.60
63.64
61.93
53.72
42.99
33.95
29.61
30.94
37.04
45.81
55.03
63.18
69.66
74.50
77.62
78.28
75.00
66.19
51.08
30.48
6.91
-16.23
-35.77
-49.90
-58.52
-62.99
-65.24
-66.98
-69.16
-72.01
-75.20
-78.07
-79.73
-79.05
-74.78
-65.80
-51.73
-33.32
-12.58
7.72
24.93
37.28
44.35
46.79
45.70
42.06
36.51
29.66
22.52
16.67
13.85
15.32
21.12
29.96
39.77
48.43
54.64
58.06
59.00
57.86
54.71
49.28
41.41
31.56
20.86
10.93
3.14
-1.87
-4.37
-5.22
-5.20
-4.59
-3.05
-0.20
3.80
7.91
10.48
10.10
6.51
1.02
-3.94
-5.82
-3.34
2.73
9.71
14.04
12.97
5.79
-5.62
-17.63
-26.34
-29.19
-26.00
-18.87
-11.26
-6.52
-6.61
-11.53
-19.48
-27.68
-33.34
-34.68
-31.42
-24.78
-16.91
-10.10
-6.05
-5.63
-9.05
-16.10
-26.30
-38.46
-50.47
-59.27
-61.73
-55.88
-42.00
-22.80
-2.52
14.61
25.79
30.24
29.03
24.25
18.19
12.83
9.47
8.68
10.27
13.42
17.06
20.18
22.14
22.65
21.72
19.50
16.41
13.32
11.54
12.44
16.73
23.88
32.12
39.04
42.44
41.11
35.01
24.90
11.89
-2.85
-18.01
-31.88
-42.40
-47.59
-46.28
-38.70
-26.54
-12.46
0.68
10.57
16.06
17.38
16.09
14.58
15.29
19.75
27.79
37.58
46.26
51.18
50.84
45.43
36.48
26.22
16.81
9.98
6.78
7.57
11.97
18.83
26.51
33.21
37.40
38.03
34.51
26.71
14.97
0.19
-16.16
-32.08
-45.44
-54.46
-58.07
-56.23
-50.10
-41.85
-34.24
-29.73
-29.74
-34.01
-40.69
-46.90
-49.85
-47.66
-39.93
-27.60
-12.55
2.91
16.42
25.87
29.84
27.90
20.83
10.38
-1.25
-12.01
-20.46
-25.85
-27.97
-27.04
-23.61
-18.57
-13.04
-8.14
-4.56
-2.25
-0.42
2.09
6.16
11.95
18.66
24.72
28.29
27.67
21.82
10.67
-4.73
-22.35
-39.61
-54.04
-63.86
-68.36
-67.86
-63.46
-56.64
-48.92
-41.55
-35.36
-30.52
-26.61
-22.80
-18.17
-12.23
-5.10
2.52
9.62
15.31
18.99
20.45
19.77
17.31
13.93
11.12
10.96
15.51
25.94
41.78
60.67
79.01
93.20
100.93
101.89
97.51
90.04
81.31
72.07
62.07
50.73
37.86
23.98
10.11
-2.82
-14.37
-24.66
-33.99
-42.36
-49.12
-53.18
-53.43
-49.38
-41.45
-30.90
-19.44
-8.73
0.00
6.14
9.56
10.52
9.52
7.19
4.21
1.25
-1.28
-3.22
-4.75
-6.12
-7.51
-8.79
-9.59
-9.48
-8.27
-6.06
-3.21
-0.13
2.90
5.80
8.54
10.95
12.68
13.24
12.33
9.94
6.53
2.80
-0.57
-3.24
-5.32
-7.33
-9.91
-13.55
-18.37
-24.03
-30.00
-35.72
-40.79
-44.95
-47.89
-49.09
-47.82
-43.48
-36.01
-26.21
-15.60
-5.99
1.14
5.21
6.50
5.87
4.14
1.68
-1.60
-5.88
-10.95
-16.07
-20.14
-22.21
-21.95
-19.86
-17.03
-14.64
-13.38
-13.30
-13.87
-14.41
-14.54
-14.34
-14.27
-14.83
-16.20
-18.16
-20.12
-21.48
-21.95
-21.66
-21.13
-21.01
-21.87
-24.07
-27.75
-32.89
-39.23
-46.26
-53.13
-58.73
-61.94
-62.02
-58.74
-52.54
-44.16
-34.43
-23.96
-13.15
-2.30
8.20
17.79
25.91
32.22
36.82
40.27
43.37
46.84
51.02
55.80
60.72
65.26
68.94
71.48
72.73
72.67
71.44
69.21
66.16
62.43
58.02
52.87
46.94
40.34
33.37
26.42
19.76
13.45
7.40
1.60
-3.68
-7.83
-10.21
-10.49
-8.94
-6.38
-3.73
-1.40
1.09
5.14
12.58
24.98
42.97
65.86
91.69
117.50
139.84
155.27
161.11
155.95
140.23
116.24
87.62
58.36
31.70
9.34
-8.52
-22.67
-34.02
-43.07
-49.85
-54.41
-57.15
-58.84
-60.27
-61.72
-62.81
-62.85
-61.40
-58.68
-55.57
-53.08
-51.81
-51.68
-52.13
-52.53
-52.56
-52.22
-51.62
-50.85
-49.97
-49.20
-49.06
-50.14
-52.63
-55.92
-58.49
-58.46
-54.33
-45.72
-33.49
-19.45
-5.75
5.78
13.91
18.16
18.73
16.37
12.21
7.37
2.60
-1.87
-6.31
-11.04
-16.07
-20.89
-24.69
-26.90
-27.56
-27.27
-26.80
-26.56
-26.32
-25.49
-23.67
-21.05
-18.52
-17.25
-18.08
-21.14
-25.87
-31.29
-36.49
-40.80
-43.76
-45.08
-44.61
-42.43
-39.12
-35.76
-33.67
-33.92
-36.76
-41.30
-45.63
-47.53
-45.29
-38.55
-28.51
-17.64
-8.80
-4.17
-4.35
-8.16
-13.07
-16.29
-15.96
-11.93
-5.76
0.09
3.49
3.66
1.59
-0.45
0.10
5.07
14.78
28.05
42.69
56.32
67.05
74.04
77.77
79.94
82.90
88.65
97.66
108.03
115.69
115.71
104.34
80.84
48.16
12.26
-19.77
-41.85
-50.69
-46.53
-32.88
-15.39
-0.09
8.47
8.89
3.37
-3.06
-4.76
1.86
16.44
34.58
49.61
55.35
48.67
30.69
6.33
-17.30
-33.22
-36.47
-25.44
-2.03
29.18
62.52
93.21
118.68
138.84
155.02
168.27
177.80
180.70
173.09
152.18
118.25
75.07
28.87
-13.96
-48.98
-74.80
-92.56
-104.40
-111.88
-115.32
-114.27
-108.75
-100.20
-91.62
-86.46
-87.20
-94.02
-104.60
-114.76
-119.94
-116.56
-102.97
-79.78
-49.64
-16.47
15.30
41.73
60.20
69.87
71.63
67.57
60.04
50.93
41.26
31.47
21.86
13.07
6.05
1.77
0.63
2.17
5.11
7.91
9.36
9.06
7.48
5.53
4.08
3.47
3.32
2.82
1.14
-2.12
-6.65
-11.64
-16.22
-19.95
-23.12
-26.67
-31.68
-38.82
-47.84
-57.55
-66.18
-71.87
-73.26
-69.82
-61.94
-50.74
-37.82
-24.86
-13.22
-3.71
3.54
8.84
12.67
15.28
16.62
16.37
14.30
10.45
5.33
-0.25
-5.46
-9.64
-12.39
-13.61
-13.41
-12.09
-10.11
-8.09
-6.65
-6.26
-6.93
-8.27
-9.45
-9.59
-8.00
-4.55
0.28
5.55
10.21
13.40
14.72
14.20
12.23
9.45
6.64
4.64
4.28
6.21
10.72
17.58
26.06
35.06
43.34
49.77
53.55
54.33
52.25
47.94
42.32
36.35
30.85
26.26
22.65
19.89
17.83
16.43
15.74
15.78
16.36
17.04
17.19
16.24
13.91
10.29
5.84
1.17
-3.15
-6.80
-9.75
-12.23
-14.59
-17.25
-20.61
-24.87
-29.98
-35.49
-40.54
-43.95
-44.60
-41.67
-35.06
-25.44
-14.12
-2.71
7.32
14.98
19.84
21.99
21.86
19.96
16.83
12.99
9.01
5.47
2.90
1.61
1.64
2.71
4.38
6.15
7.71
8.97
9.99
10.82
11.31
11.13
9.82
7.11
3.06
-1.81
-6.70
-10.82
-13.77
-15.64
-17.13
-19.18
-22.71
-28.15
-35.20
-42.74
-49.09
-52.45
-51.49
-45.82
-36.11
-23.85
-10.83
1.41
11.88
20.20
26.35
30.48
32.73
33.20
32.08
29.67
26.37
22.61
18.79
15.23
12.20
9.77
7.87
6.18
4.29
1.85
-1.23
-4.78
-8.47
-12.04
-15.48
-19.04
-23.09
-27.97
-33.87
-41.03
-49.79
-60.57
-73.57
-88.29
-103.23
-116.19
-124.90
-127.87
-124.85
-116.75
-104.74
-89.45
-70.44
-46.47
-16.39
19.77
60.03
100.54
136.27
162.34
175.25
173.74
158.99
134.21
103.96
73.41
47.68
31.16
26.64
34.38
51.57
72.57
90.26
98.20
92.82
74.61
47.97
19.45
-4.48
-19.46
-24.15
-19.97
-9.97
2.44
14.55
24.84
32.98
39.35
44.38
47.89
48.72
44.89
34.33
15.90
-9.88
-40.38
-71.34
-97.75
-115.10
-120.34
-112.52
-92.78
-64.04
-30.36
3.89
34.88
60.13
78.88
92.03
101.51
109.45
117.26
125.26
132.58
137.50
137.99
132.31
119.53
99.86
74.79
46.84
19.14
-5.21
-23.83
-35.49
-40.20
-39.00
-33.67
-26.36
-19.30
-14.46
-13.34
-16.57
-23.75
-33.45
-43.72
-52.59
-58.79
-62.07
-63.11
-63.10
-63.22
-64.17
-66.09
-68.70
-71.53
-74.05
-75.72
-75.88
-73.72
-68.46
-59.63
-47.43
-32.92
-17.81
-3.99
7.04
14.60
18.89
20.60
20.53
19.29
17.26
14.77
12.25
10.27
9.23
9.20
9.83
10.52
10.78
10.49
9.92
9.46
9.33
9.38
9.15
8.04
5.62
1.76
-3.30
-9.11
-15.13
-20.93
-26.18
-30.68
-34.34
-37.25
-39.67
-41.94
-44.45
-47.31
-50.15
-51.97
-51.34
-46.90
-38.01
-25.12
-9.77
5.89
19.77
30.40
37.32
40.96
42.52
43.55
45.60
49.70
55.97
63.56
70.80
75.95
77.93
76.78
73.57
69.59
65.52
61.07
55.17
46.88
36.03
23.50
10.83
-0.59
-10.04
-17.50
-23.15
-26.93
-28.34
-26.91
-22.72
-16.82
-11.10
-7.67
-8.15
-13.09
-21.86
-32.86
-43.95
-52.92
-57.94
-57.92
-52.74
-43.14
-30.38
-15.81
-0.58
14.41
28.21
39.69
47.45
50.16
46.99
37.94
24.04
7.19
-10.04
-24.90
-34.86
-38.21
-34.67
-25.63
-13.94
-3.02
4.33
6.95
5.66
2.76
0.84
1.63
5.28
10.43
14.85
16.37
13.52
5.96
-5.59
-19.55
-33.74
-45.90
-54.21
-57.69
-56.46
-51.53
-44.31
-36.11
-27.76
-19.64
-11.78
-4.09
3.49
10.95
18.13
24.64
29.75
32.37
31.38
26.09
16.81
5.10
-6.44
-14.85
-17.70
-13.90
-4.12
9.52
24.14
37.02
46.35
51.49
52.73
50.72
46.00
38.80
29.15
17.31
3.95
-9.83
-22.85
-34.28
-43.90
-51.92
-58.59
-63.66
-66.30
-65.38
-60.04
-50.22
-36.72
-20.96
-4.51
11.36
25.57
37.12
44.96
48.11
46.01
38.91
27.93
14.83
1.63
-9.77
-17.91
-21.77
-20.88
-15.33
-5.79
6.48
19.84
32.48
42.76
49.44
51.80
49.70
43.43
33.72
21.65
8.63
-3.72
-13.93
-21.05
-25.12
-27.26
-29.31
-32.98
-38.91
-46.09
-52.12
-54.29
-50.82
-41.68
-28.60
-14.22
-0.92
9.83
17.72
23.09
26.49
28.30
28.74
28.05
26.62
24.99
23.71
23.23
23.84
25.57
28.07
30.63
32.28
32.10
29.61
25.03
19.23
13.44
8.80
5.95
4.80
4.65
4.34
2.76
-0.90
-6.84
-14.73
-23.96
-33.89
-44.15
-54.58
-65.00
-74.87
-83.19
-88.61
-89.92
-86.46
-78.42
-66.80
-52.98
-38.40
-24.24
-11.43
-0.60
7.87
13.99
18.30
21.86
25.87
31.18
37.86
44.95
50.92
54.25
54.13
50.71
44.91
37.99
31.01
24.64
19.14
14.60
11.02
8.36
6.35
4.51
2.15
-1.35
-6.28
-12.42
-19.07
-25.31
-30.46
-34.35
-37.50
-40.92
-45.63
-52.11
-59.84
-67.19
-71.99
-72.20
-66.78
-56.20
-42.39
-27.95
-15.31
-5.96
-0.15
2.78
4.05
4.96
6.68
10.00
15.15
21.63
28.28
33.65
36.58
36.90
35.55
34.34
35.12
39.00
45.74
53.84
61.27
66.26
68.05
67.00
64.21
60.77
57.18
53.16
48.02
41.34
33.44
25.27
17.82
11.40
5.36
-1.50
-10.08
-20.28
-30.75
-39.53
-44.87
-45.93
-42.95
-36.88
-28.79
-19.60
-10.01
-0.70
7.57
14.03
18.24
20.15
20.09
18.56
16.01
12.82
9.43
6.41
4.36
3.72
4.47
6.11
7.91
9.20
9.66
9.38
8.66
7.76
6.70
5.27
3.19
0.40
-2.90
-6.26
-9.17
-11.37
-12.96
-14.37
-16.24
-19.09
-23.12
-28.22
-34.02
-39.96
-45.31
-49.21
-50.63
-48.74
-43.17
-34.45
-23.95
-13.55
-4.98
0.76
3.54
3.99
2.91
0.94
-1.57
-4.35
-7.04
-9.15
-10.25
-10.28
-9.56
-8.60
-7.71
-6.90
-5.92
-4.60
-3.10
-1.91
-1.56
-2.28
-3.85
-5.80
-7.71
-9.52
-11.45
-13.76
-16.47
-19.29
-21.71
-23.24
-23.61
-22.74
-20.57
-16.98
-11.76
-4.75
3.98
13.99
24.50
34.52
43.12
49.61
53.65
55.25
54.61
51.99
47.70
42.10
35.75
29.50
24.33
21.13
20.24
21.27
23.19
24.74
25.00
23.73
21.36
18.65
16.10
13.63
10.52
5.80
-1.39
-11.30
-23.60
-37.47
-51.86
-65.62
-77.50
-86.11
-89.99
-87.96
-79.57
-65.54
-47.71
-28.63
-10.76
4.22
15.62
23.59
28.55
30.94
31.07
29.36
26.54
23.56
21.29
20.14
19.93
20.17
20.43
20.72
21.36
22.74
24.79
26.93
28.19
27.72
25.17
20.80
15.29
9.41
3.76
-1.37
-5.89
-9.93
-13.72
-17.63
-22.01
-27.01
-32.29
-36.97
-39.76
-39.43
-35.26
-27.37
-16.64
-4.54
7.37
17.73
25.60
30.55
32.60
32.13
29.78
26.23
22.09
17.88
14.01
10.89
8.82
7.95
8.15
9.00
9.92
10.40
10.21
9.37
8.06
6.34
4.06
0.96
-3.15
-8.11
-13.43
-18.48
-22.86
-26.60
-30.18
-34.23
-39.21
-45.20
-51.77
-58.15
-63.42
-66.66
-67.04
-64.05
-57.61
-48.25
-37.04
-25.30
-14.16
-4.28
4.27
11.74
18.40
24.27
29.16
32.84
35.38
37.21
39.02
41.49
44.92
49.16
53.66
57.70
60.69
62.29
62.52
61.59
59.78
57.22
53.78
49.19
43.19
35.80
27.50
19.13
11.57
5.46
0.93
-2.39
-5.19
-8.19
-11.97
-16.88
-23.02
-30.15
-37.61
-44.34
-49.00
-50.41
-47.91
-41.73
-32.86
-22.67
-12.44
-2.99
5.37
12.59
18.62
23.24
26.10
26.96
25.85
23.17
19.52
15.58
11.83
8.53
5.78
3.57
1.91
0.75
-0.01
-0.56
-1.16
-2.07
-3.54
-5.65
-8.35
-11.46
-14.65
-17.65
-20.24
-22.36
-24.03
-25.40
-26.57
-27.73
-29.10
-30.93
-33.45
-36.70
-40.41
-43.94
-46.36
-46.67
-44.11
-38.40
-29.83
-19.22
-7.69
3.59
13.68
22.02
28.38
32.79
35.30
35.94
34.71
31.79
27.67
23.13
19.08
16.29
15.12
15.43
16.71
18.22
19.34
19.59
18.80
16.96
14.19
10.62
6.39
1.63
-3.48
-8.70
-13.73
-18.30
-22.24
-25.59
-28.53
-31.28
-34.00
-36.68
-39.21
-41.49
-43.44
-44.98
-45.94
-45.95
-44.47
-41.01
-35.33
-27.61
-18.47
-8.76
0.77
9.63
17.62
24.71
30.80
35.77
39.58
42.46
45.08
48.27
52.69
58.47
65.04
71.43
76.63
80.13
81.99
82.72
82.84
82.58
81.66
79.34
74.74
67.10
56.21
42.49
26.98
11.11
-3.72
-16.51
-26.93
-35.20
-42.02
-48.16
-54.24
-60.52
-66.86
-72.61
-76.74
-78.04
-75.44
-68.50
-57.64
-44.10
-29.59
-15.74
-3.69
6.09
13.59
19.06
22.79
25.05
26.14
26.41
26.24
25.94
25.71
25.63
25.73
25.97
26.33
26.78
27.27
27.84
28.55
29.45
30.41
31.06
30.82
29.15
25.81
20.95
15.10
8.86
2.65
-3.37
-9.22
-15.01
-20.81
-26.68
-32.67
-38.79
-44.92
-50.60
-55.03
-57.25
-56.41
-52.21
-44.94
-35.55
-25.20
-14.98
-5.68
2.29
8.74
13.54
16.53
17.65
17.02
15.14
12.79
10.85
9.99
10.46
11.96
13.71
14.73
14.12
11.41
6.63
0.30
-6.75
-13.70
-19.86
-24.91
-28.85
-31.95
-34.69
-37.58
-41.08
-45.45
-50.71
-56.67
-63.13
-70.00
-77.47
-85.88
-95.54
-106.35
-117.62
-128.02
-135.87
-139.56
-137.96
-130.67
-117.83
-99.74
-76.47
-47.77
-13.47
25.89
68.52
111.39
150.89
183.81
208.30
224.14
232.36
234.42
231.51
224.32
213.11
198.08
179.47
157.51
132.36
104.28
74.13
43.77
16.01
-6.04
-20.26
-26.38
-26.29
-23.15
-20.12
-19.18
-20.74
-24.07
-28.33
-33.31
-39.54
-47.76
-58.16
-69.79
-80.79
-89.06
-93.14
-92.79
-88.94
-83.01
-76.20
-68.88
-60.61
-50.61
-38.43
-24.30
-9.12
5.95
19.95
32.11
41.67
47.51
48.39
43.60
33.83
21.41
9.70
1.70
-1.22
0.14
3.45
6.23
7.09
6.19
4.63
3.45
2.80
1.90
-0.26
-4.06
-8.87
-13.35
-16.22
-16.99
-16.14
-14.82
-14.22
-14.98
-17.04
-19.85
-22.72
-25.16
-26.97
-28.02
-28.13
-27.00
-24.22
-19.56
-13.09
-5.30
2.97
10.73
17.10
21.49
23.76
24.09
22.76
19.99
15.92
10.76
5.04
-0.31
-4.32
-6.42
-6.81
-6.34
-6.09
-6.71
-8.24
-10.19
-12.06
-13.70
-15.36
-17.44
-20.12
-23.25
-26.48
-29.60
-32.71
-36.20
-40.44
-45.59
-51.40
-57.21
-62.09
-64.93
-64.65
-60.45
-52.11
-40.21
-26.05
-11.33
2.37
13.97
23.04
29.63
33.98
36.25
36.59
35.20
32.51
29.16
25.74
22.67
20.03
17.72
15.71
14.15
13.39
13.65
14.74
15.97
16.38
15.22
12.31
8.10
3.35
-1.33
-5.80
-10.30
-15.20
-20.68
-26.65
-32.88
-39.11
-45.09
-50.41
-54.27
-55.55
-53.17
-46.61
-36.32
-23.65
-10.42
1.64
11.32
18.02
21.61
22.24
20.26
16.30
11.30
6.40
2.66
0.78
0.86
2.50
4.99
7.63
9.90
11.52
12.33
12.28
11.37
9.67
7.40
4.82
2.09
-0.90
-4.56
-9.39
-15.75
-23.43
-31.57
-38.82
-43.65
-44.91
-42.15
-35.68
-26.44
-15.59
-4.19
6.90
17.04
25.70
32.43
36.88
39.01
39.14
37.90
36.05
34.20
32.75
31.82
31.57
32.23
34.11
37.40
41.92
47.06
51.89
55.55
57.48
57.60
56.14
53.58
50.42
47.13
44.16
41.88
40.47
39.83
39.59
39.22
38.41
37.27
36.48
37.10
40.19
46.47
56.00
68.14
81.70
95.19
107.01
115.63
119.64
117.91
109.87
95.70
76.53
54.23
30.99
8.73
-11.33
-28.85
-44.23
-58.26
-71.75
-85.32
-99.34
-113.82
-128.49
-142.73
-155.70
-166.49
-174.32
-178.70
-179.49
-176.99
-171.92
-165.53
-159.45
-155.26
-153.84
-154.75
-155.89
-153.92
-145.22
-127.10
-98.95
-62.74
-22.90
14.79
44.78
63.55
70.67
68.78
62.12
54.53
47.70
40.77
31.39
17.53
-1.12
-22.95
-45.49
-66.73
-85.88
-102.95
-117.93
-130.06
-138.08
-140.92
-138.31
-131.06
-120.66
-108.98
-97.81
-88.45
-81.38
-75.91
-70.40
-62.92
-52.32
-38.99
-24.94
-12.80
-4.52
-0.29
1.67
4.31
10.42
21.58
37.86
58.33
81.91
107.94
136.14
165.97
195.77
222.54
242.33
251.33
247.05
229.13
199.53
162.30
123.00
88.01
63.36
53.21
58.24
74.59
94.60
109.31
112.10
101.30
80.53
56.52
35.43
19.90
8.27
-3.81
-20.39
-42.49
-67.05
-88.07
-99.10
-95.90
-78.06
-48.82
-13.56
22.39
55.61
85.35
112.99
140.41
168.37
195.77
220.16
239.29
252.35
260.27
264.88
267.35
267.13
262.08
249.64
228.16
197.80
159.94
115.99
66.15
9.26
-56.08
-129.80
-208.90
-287.09
-355.89
-406.79
-433.62
-434.05
-409.97
-366.19
-308.52
-241.89
-169.35
-92.03
-10.10
75.72
162.84
245.96
317.56
369.38
394.97
391.77
361.93
311.41
247.53
176.22
100.35
20.18
-64.25
-150.24
-230.87
-295.92
-335.19
-342.50
-318.44
-270.51
-210.38
-150.03
-98.07
-57.95
-28.69
-6.94
10.61
25.91
39.29
50.27
58.19
62.57
62.91
58.50
48.76
33.58
14.09
-7.17
-26.68
-40.79
-46.77
-43.56
-32.00
-14.55
5.27
23.62
36.99
42.96
40.77
31.64
18.50
4.99
-5.83
-12.67
-16.33
-18.97
-22.85
-29.10
-37.25
-45.59
-52.20
-55.94
-56.96
-56.44
-55.88
-56.34
-58.04
-60.46
-62.76
-64.28
-64.83
-64.61
-63.98
-63.12
-61.86
-59.62
-55.70
-49.44
-40.63
-29.62
-17.43
-5.62
4.08
10.23
12.33
11.14
8.64
7.31
8.99
14.08
21.27
28.21
32.77
34.01
32.61
30.25
28.60
28.31
28.73
28.61
27.06
24.18
20.95
18.59
18.18
20.71
27.60
40.92
62.63
92.76
127.91
160.84
181.72
181.44
155.21
105.20
40.52
-25.53
-79.69
-112.79
-121.79
-109.57
-82.93
-50.20
-19.53
2.01
8.70
-3.08
-33.60
-78.45
-128.44
-171.23
-194.85
-191.56
-160.35
-107.03
-41.59
25.32
85.64
135.20
173.40
201.15
218.99
226.08
220.62
201.40
169.48
129.05
86.87
50.42
25.57
14.74
16.40
25.90
37.34
45.35
46.56
39.97
26.61
8.67
-11.59
-32.50
-53.48
-74.89
-97.46
-121.59
-146.84
-171.95
-195.32
-215.52
-231.59
-243.03
-249.52
-250.78
-246.69
-237.73
-225.16
-210.98
-197.15
-184.70
-173.01
-159.73
-141.30
-113.88
-74.76
-23.60
36.80
100.50
159.57
206.07
234.17
241.55
229.54
202.15
164.46
121.33
76.70
33.63
-5.38
-38.33
-63.93
-81.87
-92.85
-98.06
-98.26
-93.03
-80.67
-58.99
-26.60
15.70
64.30
113.41
156.65
188.85
207.39
212.48
206.45
192.58
174.14
153.84
133.73
115.21
99.02
85.13
72.85
61.13
49.18
36.80
24.56
13.47
4.53
-1.72
-5.38
-7.02
-7.47
-7.49
-7.65
-8.31
-9.65
-11.71
-14.40
-17.61
-21.17
-24.95
-28.87
-32.80
-36.64
-40.31
-43.82
-47.31
-51.04
-55.18
-59.60
-63.71
-66.43
-66.48
-62.79
-54.94
-43.42
-29.71
-15.86
-3.96
4.45
8.91
10.12
9.70
9.60
11.34
15.51
21.52
27.88
32.86
35.26
34.79
32.16
28.85
26.48
26.10
27.61
29.25
27.53
17.94
-3.41
-37.71
-81.65
-127.22
-163.41
-179.61
-169.32
-132.63
-76.36
-11.80
48.84
95.79
123.68
131.92
123.66
104.21
79.49
54.74
33.74
18.32
8.39
2.35
-2.04
-7.03
-14.31
-24.61
-37.67
-52.50
-68.04
-84.00
-101.65
-123.74
-153.24
-191.32
-235.41
-278.86
-312.52
-327.85
-319.82
-288.48
-238.57
-177.59
-113.70
-54.13
-4.46
31.68
52.96
60.52
57.82
49.80
41.52
36.86
37.89
44.91
56.90
72.03
88.14
103.13
115.57
125.21
133.11
141.13
150.86
162.75
175.68
187.38
195.48
198.45
196.14
189.54
180.17
169.29
157.46
144.58
130.18
113.96
96.08
77.22
58.42
40.80
25.30
12.60
3.09
-3.09
-6.03
-6.04
-3.65
0.47
5.61
11.08
16.22
20.26
22.43
21.94
18.21
11.07
0.97
-10.98
-23.08
-33.31
-39.76
-41.22
-37.60
-30.17
-21.17
-13.05
-7.52
-4.92
-4.36
-4.45
-4.27
-3.95
-4.51
-6.98
-11.53
-16.97
-21.09
-21.63
-17.31
-8.43
3.24
15.33
25.74
33.33
38.04
40.63
42.12
43.44
45.30
48.18
52.40
58.23
65.92
75.73
87.81
101.97
117.34
132.09
143.58
149.06
146.64
135.97
118.35
96.18
72.18
48.80
28.21
12.50
3.52
2.20
7.40
15.19
19.18
12.37
-10.48
-50.96
-106.53
-171.39
-237.88
-298.12
-345.23
-374.44
-383.84
-374.73
-351.21
-318.90
-283.29
-248.28
-215.55
-185.07
-156.22
-128.68
-102.74
-78.85
-57.16
-37.42
-19.13
-2.15
13.31
26.88
38.30
47.25
53.06
54.35
49.21
35.86
13.91
-14.75
-46.06
-75.02
-97.64
-112.36
-120.42
-124.76
-128.14
-131.53
-133.48
-131.06
-121.71
-105.01
-83.55
-62.16
-46.21
-39.70
-44.18
-58.53
-79.61
-103.22
-124.89
-140.53
-146.96
-142.36
-126.48
-100.49
-66.34
-26.12
18.45
66.02
114.96
162.94
206.90
243.96
272.45
292.58
306.13
315.32
321.50
324.49
322.80
314.58
298.86
276.34
249.21
220.30
191.94
165.16
139.63
114.35
88.69
63.19
39.63
20.45
7.66
1.92
2.11
5.75
9.95
12.56
12.75
10.99
8.38
6.01
4.43
3.74
3.89
5.01
7.51
11.82
18.01
25.52
33.23
39.82
44.29
46.36
46.54
45.96
45.94
47.53
51.23
56.86
63.72
70.79
76.90
80.85
81.48
77.92
69.87
58.05
44.35
31.50
22.25
18.35
19.77
24.54
29.34
30.61
25.66
13.46
-5.23
-28.23
-52.73
-76.13
-96.55
-113.12
-125.82
-135.12
-141.53
-145.29
-146.40
-144.80
-140.73
-134.85
-128.16
-121.65
-116.02
-111.57
-108.43
-106.89
-107.51
-110.98
-117.73
-127.47
-139.02
-150.50
-159.73
-164.91
-165.05
-160.51
-153.27
-146.90
-145.71
-153.40
-171.27
-196.85
-223.96
-244.20
-249.54
-234.70
-198.46
-143.36
-74.57
1.40
77.50
146.55
201.81
238.15
253.36
249.09
230.56
204.97
179.17
157.70
142.00
130.89
121.80
112.04
99.68
83.88
64.82
43.64
22.16
2.59
-12.90
-22.58
-25.55
-21.88
-12.51
0.93
16.58
32.59
47.47
60.14
70.08
77.20
81.83
84.45
85.60
85.78
85.41
84.81
84.24
83.80
83.44
82.94
81.97
80.12
77.09
72.73
67.18
60.90
54.58
49.01
44.86
42.35
41.13
40.25
38.52
35.02
29.50
22.59
15.54
9.81
6.66
6.87
10.75
18.15
28.54
41.07
54.70
68.30
80.95
92.09
101.44
108.92
114.46
117.92
119.23
118.53
116.17
112.52
107.83
102.10
95.38
88.04
80.93
75.18
71.81
71.22
73.06
76.48
80.58
84.84
88.98
92.75
95.52
96.18
93.38
85.94
73.19
54.96
31.38
2.73
-30.51
-67.25
-105.55
-142.66
-175.57
-201.87
-220.41
-231.48
-236.44
-236.91
-234.21
-229.30
-223.13
-217.13
-213.35
-213.86
-219.97
-231.44
-246.52
-262.44
-275.94
-283.77
-282.80
-270.36
-244.66
-205.57
-155.22
-97.82
-38.71
17.15
66.51
108.20
142.57
170.37
191.81
206.44
213.88
214.66
210.72
204.94
200.12
197.79
197.79
198.63
198.61
196.92
193.99
191.12
189.43
189.13
189.29
188.25
184.37
176.44
163.74
145.91
123.00
95.64
65.35
34.46
5.51
-19.53
-39.92
-56.37
-70.56
-84.51
-99.85
-117.53
-137.75
-160.01
-183.17
-205.48
-224.89
-239.61
-248.77
-252.81
-253.28
-252.10
-250.68
-249.31
-247.11
-242.53
-234.09
-220.91
-202.84
-180.34
-154.25
-125.69
-96.16
-67.46
-41.58
-20.24
-4.48
5.76
11.54
14.59
16.67
18.75
20.60
20.83
17.59
9.56
-3.20
-19.06
-35.37
-49.44
-59.61
-65.70
-68.89
-71.09
-74.14
-79.18
-86.43
-95.34
-104.97
-114.34
-122.52
-128.63
-131.66
-130.57
-124.59
-113.58
-98.27
-80.09
-60.64
-41.19
-22.30
-4.05
13.57
30.25
45.36
58.21
68.50
76.39
82.41
87.27
91.74
96.78
103.50
112.80
124.87
138.70
152.14
162.64
168.14
167.90
162.59
153.78
143.12
131.77
120.08
107.92
95.13
81.82
68.46
55.72
44.20
34.20
25.74
18.66
12.71
7.80
3.93
1.20
-0.25
-0.31
1.02
3.73
7.67
12.58
18.05
23.57
28.61
32.82
36.05
38.40
40.07
41.20
41.82
41.84
41.10
39.60
37.52
35.27
33.42
32.47
32.71
33.96
35.54
36.44
35.69
32.82
28.12
22.57
17.43
13.62
11.31
9.98
8.68
6.62
3.41
-0.94
-6.27
-12.14
-17.47
-20.11
-17.04
-5.28
16.54
47.04
82.14
116.39
144.97
165.31
177.32
182.32
181.43
174.60
160.80
139.16
110.21
76.36
41.20
8.30
-19.97
-42.75
-60.39
-73.65
-83.12
-89.10
-91.84
-91.88
-90.15
-87.76
-85.72
-84.60
-84.50
-85.13
-86.07
-86.86
-87.25
-87.17
-86.76
-86.34
-86.28
-86.88
-88.12
-89.65
-90.78
-90.71
-88.75
-84.59
-78.31
-70.37
-61.44
-52.18
-43.08
-34.51
-26.74
-20.04
-14.70
-11.02
-9.10
-8.80
-9.66
-11.04
-12.25
-12.83
-12.57
-11.62
-10.29
-8.93
-7.77
-6.86
-6.11
-5.40
-4.68
-4.04
-3.67
-3.79
-4.59
-6.22
-8.69
-11.88
-15.39
-18.59
-20.69
-20.95
-18.90
-14.60
-8.57
-1.69
5.13
11.16
15.99
19.47
21.62
22.49
22.12
20.63
18.19
15.15
11.95
9.04
6.78
5.33
4.62
4.42
4.40
4.26
3.85
3.21
2.42
1.63
0.86
0.00
-1.16
-2.92
-5.47
-8.83
-12.75
-16.63
-19.68
-21.06
-20.16
-16.79
-11.28
-4.32
3.20
10.53
17.09
22.58
26.78
29.56
30.80
30.52
28.92
26.42
23.58
20.96
18.99
17.92
17.81
18.61
20.14
22.15
24.33
26.35
27.90
28.74
28.74
27.96
26.63
25.11
23.76
22.76
21.97
20.96
19.19
16.29
12.30
7.73
3.48
0.42
-0.89
-0.50
1.01
2.72
3.74
3.44
1.53
-1.94
-6.73
-12.45
-18.56
-24.34
-28.97
-31.67
-31.90
-29.64
-25.35
-19.92
-14.36
-9.60
-6.28
-4.69
-4.83
-6.41
-8.98
-12.00
-15.03
-17.85
-20.48
-23.11
-25.87
-28.70
-31.14
-32.45
-31.77
-28.47
-22.36
-13.78
-3.59
7.16
17.41
26.35
33.56
38.97
42.76
45.12
46.18
45.88
44.07
40.69
35.88
30.00
23.56
17.06
10.79
4.89
-0.63
-5.73
-10.30
-14.16
-17.30
-19.93
-22.44
-25.17
-28.19
-31.20
-33.61
-34.88
-34.85
-33.81
-32.40
-31.20
-30.38
-29.58
-28.09
-25.21
-20.64
-14.66
-7.98
-1.43
4.37
9.18
13.10
16.37
19.16
21.52
23.49
25.14
26.70
28.42
30.50
32.86
35.22
37.16
38.32
38.52
37.80
36.33
34.34
31.99
29.37
26.57
23.64
20.65
17.63
14.63
11.74
9.17
7.20
6.15
6.26
7.58
9.93
12.96
16.21
19.24
21.66
23.12
23.39
22.32
19.93
16.46
12.34
8.07
4.16
0.91
-1.61
-3.52
-5.08
-6.55
-8.11
-9.84
-11.75
-13.80
-15.92
-18.09
-20.30
-22.66
-25.31
-28.45
-32.12
-36.14
-40.01
-42.96
-44.27
-43.46
-40.54
-35.98
-30.60
-25.21
-20.42
-16.49
-13.47
-11.27
-9.78
-8.86
-8.29
-7.69
-6.53
-4.27
-0.50
4.98
12.07
20.37
29.27
37.95
45.52
51.18
54.42
55.20
54.01
51.70
49.14
46.86
44.82
42.46
39.05
34.16
27.92
21.19
15.20
11.07
9.33
9.68
11.10
12.29
12.21
10.43
7.16
3.00
-1.41
-5.63
-9.41
-12.60
-15.04
-16.51
-16.87
-16.17
-14.65
-12.65
-10.37
-7.81
-4.82
-1.26
2.77
6.89
10.55
13.28
14.90
15.63
16.01
16.69
18.24
20.87
24.35
27.99
30.84
31.99
30.96
27.84
23.30
18.32
13.76
10.13
7.42
5.30
3.40
1.54
-0.13
-1.31
-1.79
-1.63
-1.29
-1.38
-2.48
-4.81
-8.20
-12.14
-16.07
-19.63
-22.81
-25.90
-29.19
-32.80
-36.45
-39.56
-41.41
-41.43
-39.34
-35.23
-29.48
-22.67
-15.44
-8.36
-1.88
3.65
8.01
10.98
12.49
12.54
11.35
9.32
6.97
4.80
3.11
1.95
1.11
0.28
-0.74
-2.00
-3.33
-4.53
-5.49
-6.32
-7.19
-8.25
-9.44
-10.49
-11.05
-10.96
-10.38
-9.79
-9.69
-10.40
-11.82
-13.53
-14.89
-15.34
-14.56
-12.47
-9.14
-4.81
0.23
5.60
10.86
15.55
19.27
21.81
23.13
23.36
22.74
21.52
19.95
18.26
16.63
15.22
14.13
13.40
12.97
12.70
12.42
12.00
11.38
10.56
9.58
8.49
7.32
6.09
4.79
3.36
1.70
-0.29
-2.60
-5.09
-7.54
-9.67
-11.36
-12.67
-13.81
-15.08
-16.68
-18.70
-21.05
-23.52
-25.83
-27.58
-28.35
-27.75
-25.60
-21.98
-17.29
-12.10
-6.91
-2.05
2.37
6.32
9.74
12.51
14.41
15.34
15.32
14.61
13.54
12.44
11.55
10.92
10.49
10.12
9.66
9.03
8.21
7.26
6.24
5.15
3.99
2.72
1.37
0.06
-1.08
-1.93
-2.50
-2.93
-3.40
-4.07
-4.98
-6.07
-7.24
-8.45
-9.78
-11.36
-13.31
-15.69
-18.45
-21.42
-24.43
-27.20
-29.45
-30.80
-30.91
-29.50
-26.50
-22.09
-16.69
-10.90
-5.32
-0.42
3.61
6.84
9.53
12.02
14.52
17.10
19.74
22.37
25.06
27.95
31.25
34.92
38.58
41.55
43.21
43.30
42.09
40.16
37.98
35.50
32.09
26.88
19.27
9.43
-1.71
-12.73
-22.24
-29.22
-33.17
-34.00
-31.94
-27.52
-21.59
-15.41
-10.41
-7.85
-8.34
-11.71
-16.85
-22.18
-26.10
-27.56
-26.32
-22.95
-18.44
-13.76
-9.41
-5.38
-1.36
2.83
6.99
10.53
12.74
13.04
11.11
6.97
0.96
-6.29
-13.91
-20.90
-26.43
-30.09
-32.13
-33.27
-34.38
-35.94
-37.83
-39.43
-39.99
-39.08
-36.80
-33.67
-30.26
-26.94
-23.72
-20.38
-16.74
-12.89
-9.27
-6.55
-5.30
-5.76
-7.67
-10.38
-13.12
-15.33
-16.79
-17.61
-18.12
-18.57
-19.05
-19.41
-19.37
-18.54
-16.63
-13.51
-9.33
-4.48
0.49
5.06
8.83
11.55
13.11
13.44
12.57
10.75
8.47
6.41
5.19
5.10
5.91
6.99
7.63
7.41
6.41
5.13
4.19
4.02
4.66
5.81
7.05
7.96
8.35
8.23
7.71
6.92
5.87
4.52
2.85
0.95
-0.97
-2.67
-4.08
-5.35
-6.83
-8.82
-11.38
-14.24
-16.83
-18.56
-19.01
-18.10
-16.03
-13.16
-9.80
-6.14
-2.25
1.77
5.71
9.25
12.00
13.69
14.23
13.82
12.80
11.61
10.57
9.85
9.45
9.24
9.05
8.70
8.08
7.18
6.04
4.74
3.31
1.69
-0.23
-2.56
-5.31
-8.38
-11.54
-14.52
-17.09
-19.16
-20.73
-21.87
-22.64
-23.12
-23.24
-22.89
-21.86
-19.86
-16.62
-12.00
-6.09
0.72
7.80
14.42
19.94
24.06
26.81
28.50
29.57
30.32
30.85
31.04
30.71
29.82
28.53
27.23
26.36
26.20
26.76
27.69
28.39
28.25
26.89
24.20
20.45
16.07
11.52
7.20
3.35
-0.01
-3.11
-6.53
-11.14
-17.75
-26.66
-37.25
-47.92
-56.55
-61.24
-61.05
-56.27
-48.17
-38.41
-28.36
-18.80
-9.94
-1.71
5.91
12.83
18.93
24.17
28.65
32.49
35.75
38.25
39.65
39.53
37.64
34.05
29.30
24.23
19.75
16.47
14.56
13.69
13.29
12.90
12.35
11.81
11.48
11.39
11.17
10.31
8.44
5.75
3.06
1.49
1.98
4.78
9.33
14.50
19.15
22.66
25.05
26.75
28.09
28.89
28.38
25.41
18.96
8.67
-4.94
-20.52
-36.19
-49.99
-60.32
-66.35
-68.24
-66.99
-64.12
-61.04
-58.57
-56.63
-54.45
-50.98
-45.44
-37.66
-28.13
-17.72
-7.38
2.12
10.33
17.19
22.89
27.86
32.61
37.54
42.81
48.09
52.68
55.61
55.89
52.84
46.35
36.92
25.59
13.68
2.34
-7.64
-16.02
-22.92
-28.59
-33.11
-36.31
-37.94
-37.81
-35.93
-32.48
-27.76
-22.03
-15.50
-8.41
-1.06
6.10
12.67
18.25
22.66
25.80
27.71
28.46
28.16
26.88
24.65
21.53
17.58
12.99
7.99
2.85
-2.34
-7.57
-12.81
-17.81
-21.90
-24.14
-23.61
-19.85
-13.16
-4.60
4.47
12.82
19.73
25.07
29.04
31.91
33.76
34.53
34.15
32.69
30.50
28.09
26.03
24.66
24.06
23.99
24.09
24.03
23.68
23.12
22.63
22.54
23.06
24.28
26.12
28.40
30.92
33.53
36.09
38.55
40.91
43.23
45.56
47.83
49.75
50.73
50.03
47.05
41.61
34.20
25.79
17.55
10.33
4.37
-0.73
-5.72
-11.28
-17.69
-24.76
-31.93
-38.65
-44.66
-49.99
-54.95
-59.82
-64.64
-69.32
-73.81
-78.23
-82.87
-87.91
-93.16
-98.11
-102.27
-105.42
-107.75
-109.53
-110.56
-109.95
-106.30
-98.45
-86.26
-70.84
-54.23
-38.49
-24.92
-13.78
-4.56
3.52
11.09
18.48
25.87
33.33
40.89
48.44
55.79
62.62
68.64
73.57
77.13
79.13
79.41
78.01
75.13
71.07
66.06
60.15
53.18
45.01
35.75
25.82
15.98
7.17
0.19
-4.62
-7.51
-9.47
-12.02
-16.68
-24.42
-34.99
-46.76
-57.15
-63.66
-64.81
-60.81
-53.38
-44.87
-37.29
-31.56
-27.53
-24.53
-22.01
-19.92
-18.62
-18.48
-19.45
-20.87
-21.62
-20.61
-17.19
-11.47
-4.33
2.90
8.98
13.25
15.90
17.86
20.27
23.86
28.56
33.57
37.87
40.88
42.84
44.60
47.12
50.77
55.20
59.44
62.39
63.35
62.15
59.05
54.46
48.63
41.67
33.68
25.04
16.48
8.99
3.52
0.80
1.02
3.84
8.39
13.46
17.71
19.98
19.57
16.50
11.53
5.91
1.02
-2.15
-3.39
-3.23
-2.71
-2.84
-4.14
-6.45
-9.07
-11.12
-11.90
-11.03
-8.47
-4.38
1.03
7.48
14.64
21.99
28.98
35.04
39.76
42.92
44.45
44.30
42.49
39.22
35.09
31.15
28.59
28.22
29.93
32.48
33.78
31.71
24.98
13.62
-1.07
-17.16
-32.90
-47.13
-59.38
-69.58
-77.76
-83.86
-87.80
-89.63
-89.63
-88.21
-85.72
-82.21
-77.49
-71.37
-63.99
-55.99
-48.35
-41.99
-37.48
-34.89
-34.04
-34.75
-36.93
-40.45
-44.85
-49.05
-51.62
-51.27
-47.46
-40.76
-32.48
-24.07
-16.44
-9.79
-3.87
1.58
6.41
10.16
12.45
13.21
12.79
11.63
9.87
7.28
3.46
-1.83
-8.41
-15.78
-23.33
-30.64
-37.37
-43.36
-48.37
-52.06
-54.12
-54.35
-52.55
-48.57
-42.31
-33.90
-23.98
-13.81
-5.03
0.84
2.99
1.58
-2.32
-7.09
-10.81
-11.62
-7.97
0.99
14.94
32.25
50.38
66.67
79.32
87.97
93.59
97.80
101.89
106.22
110.36
113.42
114.77
114.47
113.14
111.65
110.65
110.39
110.76
111.40
111.95
112.08
111.47
109.84
106.91
102.57
96.99
90.63
84.18
78.18
72.66
66.95
59.81
49.90
36.35
19.21
-0.37
-20.40
-38.66
-53.27
-63.19
-68.39
-69.72
-68.53
-66.22
-63.79
-61.62
-59.54
-57.09
-53.93
-50.06
-45.96
-42.26
-39.43
-37.58
-36.44
-35.47
-34.20
-32.40
-30.20
-28.06
-26.72
-27.06
-29.96
-35.99
-45.19
-56.86
-69.64
-81.71
-91.20
-96.62
-97.09
-92.43
-83.14
-70.17
-54.79
-38.35
-22.15
-7.22
5.70
16.14
23.95
29.13
31.81
32.12
30.23
26.46
21.31
15.48
9.75
4.77
0.93
-1.74
-3.43
-4.39
-4.79
-4.75
-4.43
-4.09
-4.11
-4.81
-6.23
-8.02
-9.49
-9.92
-8.84
-6.26
-2.66
1.25
4.80
7.65
9.90
11.91
14.11
16.81
20.10
23.89
27.92
31.92
35.53
38.38
40.06
40.25
38.84
35.98
32.05
27.52
22.81
18.16
13.58
8.98
4.26
-0.53
-5.16
-9.17
-12.05
-13.35
-12.83
-10.59
-7.12
-3.24
0.19
2.42
3.15
2.55
1.17
-0.29
-1.26
-1.53
-1.29
-1.00
-1.13
-2.02
-3.75
-6.10
-8.78
-11.41
-13.69
-15.36
-16.15
-15.86
-14.35
-11.69
-8.19
-4.39
-0.96
1.52
2.67
2.34
0.68
-2.00
-5.20
-8.27
-10.54
-11.50
-10.94
-9.05
-6.33
-3.32
-0.40
2.31
4.91
7.50
10.00
12.13
13.51
13.83
12.98
11.14
8.62
5.85
3.16
0.75
-1.43
-3.59
-6.09
-9.17
-12.85
-16.81
-20.48
-23.22
-24.52
-24.10
-22.01
-18.48
-13.86
-8.52
-2.84
2.78
7.92
12.16
15.14
16.66
16.74
15.62
13.78
11.72
9.92
8.71
8.20
8.36
9.04
9.99
10.95
11.68
12.02
11.92
11.33
10.13
8.08
4.75
-0.32
-7.53
-16.95
-28.20
-40.39
-52.14
-61.87
-68.10
-69.93
-67.31
-61.03
-52.50
-43.23
-34.40
-26.67
-20.15
-14.68
-9.96
-5.72
-1.70
2.30
6.38
10.46
14.26
17.33
19.26
19.88
19.28
17.86
16.19
14.91
14.56
15.44
17.52
20.43
23.56
26.24
27.92
28.35
27.53
25.74
23.32
20.57
17.74
14.97
12.35
9.94
7.72
5.59
3.41
1.07
-1.47
-4.17
-6.90
-9.50
-11.76
-13.50
-14.53
-14.69
-13.86
-12.06
-9.47
-6.39
-3.23
-0.31
2.22
4.38
6.18
7.50
8.08
7.58
5.88
3.22
0.21
-2.45
-4.28
-5.17
-5.47
-5.57
-5.65
-5.52
-4.67
-2.69
0.52
4.63
9.02
13.01
16.06
17.84
18.22
17.15
14.75
11.27
7.08
2.69
-1.48
-5.10
-7.98
-10.07
-11.35
-11.79
-11.42
-10.37
-8.94
-7.49
-6.34
-5.66
-5.36
-5.16
-4.72
-3.83
-2.52
-1.11
-0.01
0.40
0.04
-0.87
-1.86
-2.39
-2.14
-1.06
0.56
2.29
3.73
4.72
5.34
5.87
6.56
7.59
8.93
10.43
11.85
12.96
13.56
13.45
12.54
10.82
8.44
5.72
3.04
0.77
-0.91
-1.96
-2.43
-2.40
-1.85
-0.74
1.02
3.38
6.25
9.49
12.93
16.37
19.56
22.16
23.86
24.45
23.94
22.55
20.61
18.49
16.44
14.58
12.95
11.60
10.58
9.94
9.60
9.38
9.07
8.45
7.42
5.95
4.11
2.00
-0.23
-2.40
-4.28
-5.68
-6.50
-6.84
-6.99
-7.29
-8.04
-9.38
-11.25
-13.42
-15.64
-17.60
-19.02
-19.58
-19.05
-17.37
-14.72
-11.56
-8.48
-6.01
-4.42
-3.72
-3.71
-4.18
-5.04
-6.31
-8.02
-10.05
-12.06
-13.54
-14.00
-13.21
-11.28
-8.65
-5.91
-3.61
-2.12
-1.53
-1.76
-2.64
-3.98
-5.63
-7.37
-8.98
-10.16
-10.71
-10.52
-9.70
-8.52
-7.35
-6.55
-6.31
-6.69
-7.50
-8.41
-9.02
-8.93
-7.95
-6.06
-3.51
-0.70
1.98
4.18
5.67
6.30
5.99
4.70
2.60
0.03
-2.51
-4.51
-5.69
-6.12
-6.12
-6.10
-6.34
-6.85
-7.40
-7.70
-7.52
-6.77
-5.49
-3.79
-1.87
0.03
1.59
2.48
2.50
1.70
0.40
-0.88
-1.61
-1.43
-0.20
1.96
4.78
7.97
11.29
14.55
17.55
20.09
21.97
23.07
23.38
23.05
22.36
21.58
20.88
20.22
19.41
18.18
16.39
14.11
11.69
9.64
8.39
8.18
8.88
10.08
11.27
11.98
11.94
11.09
9.45
7.09
4.01
0.20
-4.30
-9.30
-14.45
-19.28
-23.30
-26.16
-27.67
-27.84
-26.85
-24.97
-22.52
-19.82
-17.15
-14.72
-12.62
-10.87
-9.46
-8.44
-7.90
-8.01
-8.83
-10.24
-11.90
-13.30
-13.95
-13.53
-11.98
-9.49
-6.35
-2.94
0.38
3.26
5.35
6.38
6.18
4.82
2.60
-0.01
-2.60
-4.92
-7.01
-9.06
-11.27
-13.60
-15.75
-17.26
-17.70
-16.91
-14.96
-12.14
-8.71
-4.84
-0.70
3.51
7.48
10.88
13.46
15.22
16.37
17.19
17.86
18.34
18.48
18.13
17.34
16.32
15.39
14.76
14.49
14.47
14.54
14.54
14.39
14.00
13.35
12.43
11.30
10.07
8.80
7.49
6.04
4.35
2.35
0.13
-2.16
-4.36
-6.39
-8.27
-10.09
-11.86
-13.38
-14.21
-13.81
-11.76
-7.95
-2.71
3.22
8.98
13.75
17.02
18.70
19.04
18.54
17.84
17.54
18.02
19.27
20.80
21.72
21.16
18.63
14.38
9.29
4.46
0.68
-1.88
-3.68
-5.43
-7.65
-10.39
-13.26
-15.70
-17.30
-18.01
-18.10
-18.04
-18.23
-18.88
-19.96
-21.28
-22.62
-23.90
-25.13
-26.44
-27.84
-29.23
-30.32
-30.80
-30.42
-29.05
-26.66
-23.32
-19.11
-14.22
-8.88
-3.44
1.69
6.10
9.45
11.49
12.22
11.86
10.89
10.01
10.00
11.48
14.69
19.34
24.67
29.70
33.43
35.17
34.68
32.18
28.28
23.73
19.28
15.41
12.33
9.95
8.07
6.53
5.30
4.48
4.17
4.36
4.91
5.58
6.15
6.52
6.66
6.51
5.98
4.93
3.37
1.53
-0.11
-0.99
-0.65
0.98
3.58
6.53
9.16
11.03
12.03
12.32
12.16
11.73
11.06
10.04
8.56
6.59
4.28
1.90
-0.26
-2.00
-3.31
-4.28
-5.09
-5.87
-6.67
-7.43
-8.01
-8.23
-8.02
-7.36
-6.41
-5.39
-4.52
-3.93
-3.61
-3.40
-3.12
-2.63
-1.95
-1.25
-0.87
-1.18
-2.46
-4.84
-8.19
-12.16
-16.24
-19.89
-22.68
-24.33
-24.81
-24.32
-23.25
-22.15
-21.57
-21.98
-23.57
-26.17
-29.32
-32.34
-34.59
-35.62
-35.24
-33.41
-30.27
-25.92
-20.57
-14.52
-8.19
-2.11
3.26
7.60
10.88
13.31
15.29
17.19
19.24
21.44
23.56
25.23
26.11
26.10
25.41
24.52
24.01
24.30
25.41
26.98
28.39
29.07
28.71
27.37
25.39
23.20
21.14
19.37
17.88
16.54
15.08
13.16
10.44
6.73
2.17
-2.76
-7.41
-11.21
-13.91
-15.77
-17.34
-19.17
-21.52
-24.25
-26.90
-28.98
-30.18
-30.47
-30.04
-29.14
-27.86
-26.08
-23.57
-20.13
-15.83
-11.04
-6.41
-2.65
-0.23
0.72
0.51
-0.23
-0.85
-0.79
0.13
1.80
3.84
5.88
7.67
9.25
10.89
12.96
15.74
19.30
23.44
27.84
32.13
36.05
39.37
41.88
43.36
43.59
42.49
40.22
37.19
33.91
30.81
27.94
24.92
20.87
14.82
6.04
-5.50
-19.03
-33.14
-46.30
-57.30
-65.51
-70.83
-73.39
-73.32
-70.61
-65.39
-58.07
-49.47
-40.64
-32.59
-25.93
-20.79
-16.94
-14.02
-11.76
-10.05
-8.81
-7.96
-7.33
-6.67
-5.76
-4.44
-2.71
-0.70
1.34
3.13
4.46
5.22
5.40
5.09
4.41
3.52
2.68
2.20
2.39
3.37
4.99
6.76
8.04
8.33
7.61
6.37
5.42
5.42
6.59
8.47
10.27
11.20
10.96
9.80
8.34
7.19
6.67
6.65
6.81
6.85
6.58
5.99
5.08
3.79
1.97
-0.44
-3.27
-6.15
-8.61
-10.26
-11.00
-11.01
-10.64
-10.26
-10.08
-10.20
-10.55
-11.01
-11.44
-11.71
-11.77
-11.67
-11.54
-11.49
-11.51
-11.42
-10.91
-9.70
-7.65
-4.89
-1.75
1.40
4.25
6.62
8.44
9.70
10.40
10.61
10.49
10.27
10.13
10.14
10.22
10.18
9.91
9.42
8.88
8.47
8.31
8.31
8.27
7.96
7.36
6.66
6.28
6.62
7.86
9.90
12.39
14.92
17.12
18.78
19.81
20.13
19.60
18.14
15.79
12.78
9.58
6.69
4.53
3.30
2.96
3.33
4.21
5.42
6.82
8.27
9.55
10.40
10.57
9.89
8.35
6.13
3.51
0.80
-1.82
-4.38
-7.10
-10.29
-14.14
-18.63
-23.42
-28.05
-31.98
-34.77
-36.21
-36.35
-35.66
-34.92
-35.09
-37.02
-41.00
-46.44
-51.97
-55.75
-56.17
-52.40
-44.69
-34.16
-22.32
-10.50
0.48
10.29
18.89
26.30
32.43
37.20
40.63
42.93
44.51
45.83
47.14
48.38
49.27
49.33
48.21
45.81
42.31
38.13
33.72
29.25
24.45
18.69
11.17
1.35
-10.71
-24.10
-37.28
-48.42
-55.92
-58.83
-57.01
-51.07
-42.18
-31.73
-21.12
-11.55
-3.82
1.75
5.39
7.70
9.42
11.15
13.15
15.29
17.16
18.38
18.72
18.32
17.56
16.88
16.70
17.16
18.25
19.82
21.74
23.98
26.55
29.49
32.73
36.10
39.36
42.19
44.34
45.60
45.82
44.86
42.62
39.00
34.05
27.94
21.04
13.71
6.06
-2.25
-11.97
-23.80
-37.80
-53.02
-67.48
-78.86
-85.37
-86.52
-83.16
-77.03
-69.94
-63.11
-57.08
-51.88
-47.56
-44.31
-42.45
-42.07
-42.86
-44.09
-44.88
-44.50
-42.65
-39.47
-35.29
-30.44
-25.07
-19.24
-13.08
-6.92
-1.32
3.16
6.26
8.22
9.76
11.75
14.87
19.28
24.67
30.45
36.07
41.18
45.55
48.89
50.66
50.33
47.60
42.69
36.57
30.82
27.35
27.84
33.20
43.18
56.24
69.83
81.00
87.33
87.63
82.14
72.27
59.82
46.20
32.11
17.60
2.69
-12.16
-25.87
-36.97
-44.23
-47.13
-46.05
-42.14
-36.80
-31.13
-25.60
-20.13
-14.41
-8.31
-2.25
2.88
5.93
5.94
2.55
-3.83
-11.94
-19.83
-25.25
-26.22
-21.74
-12.30
0.10
12.48
21.89
26.45
25.92
21.59
15.54
9.70
5.14
1.88
-0.79
-3.73
-7.42
-11.71
-15.90
-19.12
-20.68
-20.32
-18.23
-14.81
-10.47
-5.50
-0.10
5.42
10.45
14.20
15.89
15.18
12.39
8.40
4.45
1.57
0.26
0.31
1.05
1.68
1.64
0.91
-0.12
-0.74
-0.37
1.21
3.70
6.39
8.35
8.84
7.56
4.72
0.97
-2.88
-6.14
-8.37
-9.49
-9.64
-9.08
-8.18
-7.27
-6.68
-6.59
-6.98
-7.58
-7.99
-7.78
-6.80
-5.17
-3.34
-1.89
-1.27
-1.63
-2.81
-4.36
-5.78
-6.70
-6.96
-6.64
-5.97
-5.23
-4.66
-4.38
-4.45
-4.88
-5.67
-6.75
-8.05
-9.45
-10.84
-12.16
-13.47
-14.92
-16.67
-18.74
-20.88
-22.56
-23.08
-21.85
-18.64
-13.66
-7.52
-0.99
5.20
10.56
14.83
17.94
19.95
20.93
21.03
20.43
19.33
18.00
16.67
15.56
14.78
14.37
14.22
14.20
14.17
14.04
13.78
13.40
12.89
12.17
11.12
9.66
7.77
5.54
3.13
0.77
-1.37
-3.19
-4.75
-6.20
-7.78
-9.69
-11.97
-14.45
-16.69
-18.12
-18.18
-16.54
-13.23
-8.66
-3.48
1.66
6.21
9.89
12.66
14.57
15.77
16.37
16.46
16.13
15.48
14.62
13.68
12.78
12.03
11.51
11.30
11.37
11.66
12.00
12.18
12.01
11.41
10.39
9.09
7.67
6.22
4.78
3.28
1.67
-0.02
-1.70
-3.26
-4.60
-5.73
-6.73
-7.72
-8.80
-10.03
-11.46
-13.12
-14.94
-16.74
-18.16
-18.76
-18.10
-15.98
-12.53
-8.22
-3.69
0.45
3.75
6.10
7.60
8.48
8.92
8.97
8.58
7.64
6.11
4.09
1.81
-0.35
-1.93
-2.53
-1.86
0.13
3.27
7.17
11.41
15.60
19.48
22.97
26.15
29.15
32.04
34.61
36.32
36.34
33.90
28.63
20.86
11.63
2.31
-5.87
-12.28
-16.97
-20.48
-23.35
-25.86
-27.93
-29.24
-29.60
-29.03
-27.76
-26.04
-24.01
-21.53
-18.32
-14.13
-8.89
-2.84
3.54
9.61
14.69
18.20
19.73
19.10
16.50
12.49
7.96
3.87
1.01
-0.32
-0.30
0.49
1.44
2.11
2.35
2.25
1.95
1.57
1.11
0.56
-0.05
-0.66
-1.25
-1.83
-2.50
-3.33
-4.33
-5.38
-6.28
-6.84
-6.91
-6.41
-5.37
-3.91
-2.28
-0.86
-0.05
-0.05
-0.73
-1.58
-1.95
-1.39
0.01
1.59
2.48
2.08
0.43
-1.71
-3.25
-3.31
-1.72
0.88
3.31
4.34
3.14
-0.41
-5.73
-11.83
-17.60
-22.15
-24.99
-26.04
-25.63
-24.18
-22.10
-19.61
-16.65
-13.05
-8.63
-3.45
2.12
7.42
11.65
14.21
14.86
13.82
11.60
8.82
5.92
3.03
0.04
-3.25
-6.98
-11.08
-15.25
-18.99
-21.73
-23.00
-22.50
-20.22
-16.46
-11.81
-7.04
-2.95
-0.18
0.97
0.60
-0.74
-2.14
-2.60
-1.34
1.95
6.82
12.09
16.11
17.30
14.72
8.44
-0.47
-10.39
-19.72
-27.43
-33.15
-36.98
-39.16
-39.91
-39.41
-37.95
-35.92
-33.76
-31.75
-30.02
-28.76
-28.49
-30.16
-34.86
-43.33
-55.36
-69.64
-83.96
-95.77
-102.96
-104.39
-99.96
-90.39
-76.60
-59.13
-37.93
-12.48
17.73
52.55
90.86
130.58
169.05
203.46
231.04
249.11
255.10
247.08
224.50
189.03
144.76
97.65
54.09
19.41
-3.32
-13.69
-13.52
-5.84
5.99
19.10
31.38
41.43
48.48
52.17
52.56
50.06
45.38
39.21
31.68
22.16
9.37
-7.76
-29.02
-52.24
-73.67
-89.27
-96.38
-94.76
-86.36
-74.08
-60.13
-45.12
-28.35
-8.91
13.18
36.40
58.15
75.30
84.85
84.24
71.91
47.93
14.90
-21.92
-55.67
-79.91
-91.01
-89.40
-79.13
-65.89
-54.42
-46.94
-42.90
-40.16
-36.58
-31.16
-24.31
-17.23
-11.17
-6.80
-4.08
-2.61
-2.15
-3.01
-6.16
-12.67
-23.02
-36.45
-50.93
-63.65
-72.08
-74.81
-71.96
-65.12
-56.79
-49.68
-45.94
-46.28
-49.52
-52.64
-51.74
-43.63
-27.36
-4.83
19.63
40.87
54.58
58.52
52.92
40.05
23.41
6.84
-6.28
-13.70
-14.75
-10.44
-3.11
4.34
9.33
10.30
6.84
-0.37
-10.08
-20.71
-30.68
-38.60
-43.40
-44.60
-42.43
-37.98
-32.99
-29.55
-29.37
-32.92
-38.97
-44.54
-45.82
-39.39
-23.58
1.09
32.00
65.10
95.42
117.69
127.10
120.57
98.24
64.30
26.37
-6.77
-28.34
-35.77
-30.98
-18.50
-2.69
14.10
31.56
49.80
67.56
81.71
88.49
85.62
73.84
56.84
39.50
25.58
16.14
9.41
2.20
-8.17
-22.35
-38.61
-53.64
-63.98
-67.39
-63.40
-53.28
-39.50
-25.27
-13.97
-8.50
-10.35
-18.90
-31.36
-43.67
-52.15
-55.06
-53.11
-48.71
-44.35
-41.15
-38.51
-35.02
-29.78
-23.41
-17.69
-14.43
-14.17
-15.69
-16.43
-13.58
-5.17
9.31
28.58
49.51
67.42
77.10
74.34
57.97
31.04
0.28
-26.05
-41.45
-43.56
-34.70
-20.22
-5.80
4.84
10.63
12.44
11.58
8.81
4.10
-2.61
-10.74
-18.65
-24.02
-24.63
-19.23
-8.02
7.34
23.97
38.48
47.61
48.99
42.05
28.46
12.10
-1.96
-9.09
-6.75
4.59
21.97
41.38
59.26
73.03
80.74
80.46
70.41
50.07
21.51
-10.26
-38.53
-57.38
-64.00
-59.41
-47.48
-32.81
-18.94
-7.72
-0.02
3.40
1.63
-5.83
-18.32
-33.81
-49.64
-63.63
-74.89
-83.83
-91.40
-98.18
-103.88
-107.45
-107.75
-104.12
-96.74
-86.57
-75.01
-63.57
-53.55
-45.71
-39.91
-35.09
-29.50
-21.20
-8.60
9.14
32.00
59.00
88.21
116.73
141.01
157.62
164.46
161.66
151.90
139.50
128.89
122.93
121.99
124.30
127.10
128.22
126.81
123.42
119.31
115.60
112.75
110.59
108.49
105.43
99.80
89.48
72.48
48.03
17.74
-14.29
-42.58
-62.27
-70.93
-69.23
-60.20
-47.55
-34.07
-21.15
-9.15
1.86
11.65
20.08
27.48
34.74
42.79
51.64
59.77
64.38
62.54
52.74
36.07
16.23
-1.60
-12.68
-14.55
-7.97
3.40
14.34
19.79
16.26
2.54
-20.29
-49.46
-81.34
-112.29
-139.34
-160.51
-174.83
-181.91
-181.42
-172.90
-156.01
-131.22
-100.42
-67.07
-35.42
-9.37
8.74
18.74
22.21
21.70
19.64
17.77
16.85
16.91
17.71
19.18
21.61
25.36
30.52
36.60
42.48
46.87
48.92
48.62
46.97
45.43
45.31
47.29
51.44
57.57
65.51
75.21
86.35
98.00
108.54
116.11
119.25
117.46
111.38
102.51
92.72
83.64
76.26
70.77
66.46
61.90
55.17
44.44
28.63
7.96
-15.92
-40.50
-63.16
-82.12
-96.76
-107.52
-115.22
-120.54
-123.79
-125.20
-125.21
-124.66
-124.48
-125.26
-126.81
-128.26
-128.48
-126.66
-122.57
-116.48
-108.84
-100.11
-90.75
-81.41
-72.92
-65.93
-60.44
-55.50
-49.58
-41.35
-30.61
-18.65
-7.75
-0.18
2.83
1.37
-3.61
-11.13
-20.77
-32.61
-46.68
-62.43
-78.46
-92.81
-103.57
-109.43
-110.07
-106.20
-99.41
-91.74
-85.13
-80.69
-78.22
-76.15
-72.18
-64.23
-51.44
-34.53
-15.40
3.75
21.33
36.80
50.43
62.77
74.11
84.35
93.22
100.68
107.24
113.85
121.55
131.00
141.93
152.76
160.52
161.58
152.88
133.42
105.26
73.12
42.80
19.00
3.74
-3.72
-5.52
-3.40
2.35
12.60
28.11
48.22
70.63
92.08
109.65
121.62
127.38
126.81
119.64
105.43
84.09
56.57
25.28
-6.21
-34.08
-55.43
-69.14
-76.30
-79.69
-82.74
-88.30
-97.65
-110.23
-124.10
-136.74
-145.66
-148.69
-144.09
-130.73
-108.68
-79.81
-47.88
-17.79
5.87
20.33
25.42
23.31
17.36
10.72
5.45
2.26
0.90
0.67
0.77
0.53
-0.50
-2.29
-4.22
-5.09
-3.44
2.02
12.01
26.51
44.78
65.53
86.83
106.10
120.28
126.29
121.91
106.65
82.10
51.59
19.30
-10.77
-35.37
-52.00
-58.85
-54.81
-39.94
-16.15
12.71
41.47
65.22
80.88
88.05
88.47
84.67
78.44
70.29
59.87
47.07
32.84
19.20
8.33
1.41
-2.03
-4.02
-7.18
-13.53
-23.70
-36.74
-50.67
-63.26
-72.77
-78.36
-80.04
-78.41
-74.33
-68.63
-62.14
-55.66
-49.80
-44.76
-40.04
-34.49
-26.85
-16.44
-3.72
9.75
21.89
30.97
36.10
37.21
34.64
28.60
19.16
6.62
-8.06
-23.07
-36.20
-45.76
-51.22
-53.55
-54.70
-56.62
-60.35
-65.63
-71.06
-74.72
-74.73
-69.58
-58.46
-41.53
-20.20
2.87
24.20
40.59
50.26
53.69
53.35
52.54
53.78
57.73
63.09
67.60
69.38
67.79
63.50
57.72
51.43
44.95
38.08
30.53
22.45
14.45
7.32
1.59
-2.77
-6.27
-9.56
-13.08
-16.92
-20.84
-24.54
-27.78
-30.45
-32.59
-34.37
-36.08
-38.08
-40.56
-43.18
-44.97
-44.61
-41.04
-34.23
-25.43
-16.80
-10.40
-7.18
-6.43
-6.31
-4.85
-1.08
4.59
10.66
15.60
18.56
19.69
19.81
19.73
19.81
19.88
19.55
18.63
17.40
16.54
16.88
19.00
22.99
28.26
33.73
38.01
39.84
38.40
33.66
26.37
17.86
9.61
2.68
-2.52
-6.10
-8.31
-9.13
-8.11
-4.78
0.81
7.78
14.44
18.95
19.97
17.14
11.05
2.82
-6.34
-15.33
-23.14
-28.79
-31.43
-30.67
-26.86
-21.09
-14.87
-9.52
-5.80
-3.65
-2.50
-1.61
-0.46
1.00
2.50
3.59
3.85
3.10
1.47
-0.45
-1.58
-0.54
4.00
12.62
24.71
38.26
50.32
57.89
58.92
53.08
41.75
27.44
12.93
0.43
-8.80
-14.47
-17.02
-17.38
-16.69
-16.09
-16.47
-18.19
-21.05
-24.36
-27.25
-29.02
-29.36
-28.41
-26.63
-24.62
-22.83
-21.37
-19.65
-16.40
-9.98
0.94
16.40
34.52
51.67
63.64
67.20
61.51
48.46
31.87
15.92
3.65
-3.78
-6.93
-7.27
-6.23
-4.76
-3.18
-1.54
0.14
1.62
2.55
2.55
1.39
-0.89
-3.88
-6.84
-8.74
-8.48
-5.24
1.10
9.64
18.50
25.26
27.83
25.19
17.77
7.28
-4.04
-14.19
-21.91
-26.68
-28.47
-27.44
-23.87
-18.33
-11.80
-5.61
-1.05
1.12
1.03
-0.43
-2.05
-2.86
-2.59
-1.66
-0.83
-0.70
-1.34
-2.42
-3.47
-4.33
-5.18
-6.43
-8.27
-10.54
-12.67
-14.05
-14.26
-13.03
-10.13
-5.19
2.07
11.43
21.65
30.49
35.29
33.95
25.92
12.51
-3.51
-18.91
-30.96
-38.16
-40.35
-38.34
-33.51
-27.33
-21.07
-15.65
-11.55
-8.82
-7.21
-6.32
-5.77
-5.30
-4.77
-4.03
-2.87
-1.06
1.49
4.59
7.77
10.50
12.50
14.12
16.20
19.65
24.88
31.33
37.66
42.16
43.54
41.31
35.78
27.76
18.11
7.59
-3.16
-13.40
-22.32
-29.21
-33.75
-36.16
-37.07
-37.15
-36.82
-36.06
-34.47
-31.61
-27.26
-21.56
-15.12
-8.79
-3.50
0.09
1.73
1.61
0.39
-0.83
-0.65
2.29
8.90
19.04
31.29
43.14
51.74
54.97
52.16
44.26
33.32
21.50
10.32
0.45
-8.07
-15.31
-21.10
-25.07
-26.95
-26.85
-25.34
-23.26
-21.47
-20.52
-20.63
-21.64
-22.98
-23.76
-22.76
-18.75
-10.99
0.24
13.41
25.98
35.13
38.81
36.48
29.27
19.38
9.21
0.44
-6.23
-10.91
-13.97
-15.65
-15.99
-14.97
-12.85
-10.21
-7.83
-6.32
-5.90
-6.31
-6.97
-7.30
-6.88
-5.59
-3.51
-0.81
2.33
5.60
8.46
10.12
9.76
7.07
2.67
-1.76
-4.00
-2.22
4.10
13.79
24.47
33.50
39.06
40.65
38.81
34.49
28.36
20.63
11.40
1.20
-8.86
-17.28
-22.86
-25.27
-25.25
-24.21
-23.48
-23.60
-24.22
-24.37
-23.21
-20.57
-17.06
-13.68
-11.21
-9.79
-8.96
-8.10
-6.90
-5.50
-4.19
-2.89
-0.88
2.92
9.21
17.60
26.35
32.87
34.71
30.53
20.66
6.92
-8.04
-21.59
-31.76
-37.52
-38.74
-36.05
-30.64
-23.99
-17.60
-12.68
-9.92
-9.35
-10.40
-12.12
-13.43
-13.36
-11.21
-6.81
-0.55
6.50
12.95
17.66
20.36
22.07
24.71
30.27
39.59
51.62
63.55
71.77
73.25
66.76
53.25
35.25
15.93
-1.96
-16.70
-27.60
-34.80
-38.88
-40.57
-40.57
-39.40
-37.34
-34.48
-30.88
-26.61
-21.88
-16.94
-11.97
-6.95
-1.68
4.04
10.25
16.62
22.63
27.69
31.38
33.50
33.98
32.90
30.60
27.96
26.38
27.52
32.61
41.81
53.87
66.40
76.72
82.65
83.06
77.86
67.71
53.62
36.84
18.88
1.58
-13.14
-23.74
-29.50
-30.81
-28.94
-25.54
-22.05
-19.24
-17.13
-15.23
-12.95
-9.97
-6.44
-2.88
-0.03
1.53
1.54
0.16
-2.14
-4.77
-7.22
-9.21
-10.77
-12.07
-13.31
-14.49
-15.39
-15.71
-15.24
-14.03
-12.45
-11.01
-10.15
-10.10
-10.83
-12.20
-14.11
-16.61
-19.85
-23.86
-28.45
-33.13
-37.23
-40.16
-41.51
-41.15
-39.18
-35.77
-31.17
-25.70
-19.78
-14.00
-9.01
-5.37
-3.34
-2.85
-3.47
-4.62
-5.76
-6.53
-6.80
-6.56
-5.90
-4.83
-3.39
-1.64
0.32
2.32
4.15
5.61
6.53
6.78
6.23
4.81
2.45
-0.80
-4.80
-9.34
-14.21
-19.30
-24.69
-30.65
-37.45
-45.21
-53.66
-62.19
-69.96
-76.16
-80.32
-82.41
-82.72
-81.62
-79.30
-75.60
-70.14
-62.67
-53.34
-42.87
-32.38
-22.98
-15.37
-9.64
-5.42
-2.17
0.55
2.94
5.09
7.21
9.76
13.46
19.11
27.37
38.59
52.80
69.57
87.98
106.56
123.34
136.18
143.26
143.53
136.93
124.33
107.15
87.17
66.33
46.59
29.73
17.04
8.92
4.69
2.76
1.24
-1.31
-5.37
-10.41
-15.30
-19.05
-21.31
-22.53
-23.59
-25.26
-27.51
-29.37
-29.03
-24.47
-14.19
2.12
23.37
47.25
70.95
91.83
108.12
119.19
125.31
127.24
125.78
121.65
115.65
108.94
103.14
99.91
100.10
103.12
106.80
108.10
104.36
94.30
78.48
58.74
37.31
16.08
-3.61
-20.63
-33.68
-41.35
-42.62
-37.46
-27.27
-14.65
-2.59
6.45
11.12
11.31
7.62
0.94
-7.98
-18.60
-30.41
-42.77
-54.93
-66.23
-76.24
-84.96
-92.72
-99.97
-106.99
-113.71
-119.71
-124.33
-126.96
-127.17
-124.91
-120.54
-114.68
-107.94
-100.63
-92.64
-83.45
-72.60
-59.89
-45.71
-30.90
-16.43
-3.12
8.61
18.64
26.97
33.55
38.19
40.71
41.10
39.65
36.90
33.57
30.37
27.87
26.36
25.67
25.20
24.03
21.42
17.19
12.12
7.69
5.36
5.80
8.24
10.61
10.17
4.55
-7.39
-24.91
-45.43
-65.04
-79.41
-84.94
-79.69
-63.90
-39.90
-11.35
17.95
45.16
69.04
89.84
108.55
125.74
140.71
151.21
153.79
144.92
122.45
86.93
42.19
-5.19
-47.61
-78.66
-94.95
-96.81
-87.63
-72.16
-54.64
-37.80
-22.93
-10.87
-2.97
-1.30
-7.79
-23.08
-45.56
-71.59
-96.57
-116.47
-128.76
-132.71
-128.79
-118.00
-101.36
-80.13
-56.05
-31.62
-9.75
6.93
16.72
19.09
14.21
2.25
-17.36
-45.72
-83.37
-128.68
-176.91
-220.59
-251.67
-264.24
-256.56
-231.50
-194.99
-153.39
-111.06
-69.39
-27.41
16.38
62.03
107.26
147.98
179.82
199.95
208.00
205.90
196.85
183.84
168.61
151.45
131.94
110.23
87.94
68.02
53.73
47.30
49.13
57.77
70.82
85.87
100.94
114.26
123.68
126.44
119.48
100.40
68.47
25.39
-24.83
-76.57
-123.62
-160.27
-181.92
-185.80
-171.20
-139.73
-95.32
-43.71
8.33
54.13
88.20
107.17
110.27
99.32
77.98
50.72
21.60
-6.53
-32.20
-54.85
-73.94
-88.47
-97.10
-98.68
-92.94
-80.66
-63.26
-42.11
-18.17
7.77
34.36
59.15
78.83
90.42
92.73
87.00
76.53
65.35
56.61
51.80
50.64
51.82
53.64
54.33
52.39
46.81
37.30
24.47
9.85
-4.54
-16.76
-25.46
-30.19
-31.37
-30.10
-27.73
-25.60
-24.76
-25.92
-29.37
-35.11
-42.87
-52.08
-61.84
-70.93
-78.03
-81.81
-81.13
-75.24
-63.98
-47.97
-28.86
-9.18
8.12
20.41
26.23
25.80
20.88
14.04
7.75
3.57
1.95
2.41
4.02
5.90
7.44
8.40
8.91
9.28
9.94
11.20
13.11
15.44
17.69
19.26
19.67
18.61
16.04
12.21
7.61
2.95
-1.05
-3.90
-5.52
-6.28
-6.72
-7.21
-7.73
-7.98
-7.64
-6.74
-5.69
-5.01
-4.97
-5.31
-5.45
-4.90
-3.77
-2.90
-3.60
-7.11
-13.94
-23.63
-34.80
-45.53
-53.93
-58.63
-59.12
-55.73
-49.44
-41.46
-32.80
-24.06
-15.40
-6.78
1.83
10.27
18.21
25.26
31.09
35.50
38.43
40.04
40.73
41.10
41.78
43.21
45.45
48.22
51.00
53.25
54.64
54.99
54.22
52.24
48.90
44.13
38.02
30.88
23.12
15.14
7.15
-0.81
-8.68
-16.36
-23.51
-29.56
-33.79
-35.44
-33.93
-29.13
-21.59
-12.50
-3.47
4.02
9.09
11.72
12.58
12.57
12.37
12.16
11.67
10.60
8.92
7.10
5.89
5.94
7.34
9.60
11.73
12.78
12.33
10.61
8.42
6.61
5.69
5.61
5.94
6.28
6.55
6.99
7.89
9.24
10.69
11.76
12.13
11.86
11.16
10.09
8.40
5.59
1.23
-4.62
-11.40
-18.31
-24.55
-29.44
-32.29
-32.21
-28.32
-20.35
-9.32
2.17
10.21
10.60
0.32
-21.29
-51.90
-86.43
-118.18
-140.37
-147.64
-137.22
-109.53
-68.09
-18.93
30.74
74.05
106.09
124.85
131.35
128.77
121.10
111.74
103.04
96.38
92.87
93.66
99.80
111.44
127.23
144.43
159.64
170.07
174.51
173.52
168.78
162.32
155.75
150.20
146.51
145.59
148.37
155.34
165.68
176.71
183.99
182.15
166.48
134.50
87.02
28.13
-35.72
-97.26
-149.91
-188.90
-211.82
-218.61
-211.16
-192.78
-167.66
-140.48
-115.95
-98.38
-90.98
-95.13
-109.92
-132.08
-156.87
-179.48
-196.55
-207.17
-212.85
-216.53
-221.09
-228.06
-237.17
-246.59
-253.84
-256.65
-253.57
-244.22
-229.10
-209.29
-186.10
-160.80
-134.52
-108.28
-83.00
-59.48
-38.40
-20.19
-5.00
7.33
17.18
25.09
31.57
36.99
41.26
43.88
44.07
41.10
34.72
25.56
15.12
5.51
-1.19
-3.57
-1.34
4.49
11.98
18.96
24.08
27.45
30.76
36.57
47.14
63.34
84.19
107.13
128.70
145.26
153.48
150.58
134.80
106.06
66.55
20.70
-25.63
-66.71
-98.47
-119.44
-130.57
-134.34
-133.39
-129.58
-123.36
-113.82
-99.03
-76.82
-45.53
-4.75
44.24
98.50
153.96
206.15
250.81
284.40
304.44
310.02
302.43
285.21
263.42
242.04
223.93
208.68
193.00
172.47
143.95
107.09
64.33
19.49
-24.04
-64.52
-101.77
-136.33
-168.49
-197.76
-223.12
-243.54
-258.33
-267.33
-270.83
-269.49
-264.35
-256.61
-247.32
-236.70
-223.80
-206.56
-182.64
-150.35
-109.53
-61.72
-9.63
43.54
94.72
140.88
178.73
204.77
216.27
212.66
196.61
173.62
149.96
129.90
113.89
98.81
80.41
56.40
28.26
0.58
-21.64
-35.86
-43.15
-46.80
-49.42
-50.64
-47.10
-34.74
-11.90
19.02
52.20
81.26
102.44
116.19
126.23
136.93
150.49
165.82
179.32
187.02
186.57
178.12
163.68
145.77
126.07
105.02
82.24
57.47
31.48
6.23
-15.70
-32.14
-42.28
-47.02
-48.53
-49.23
-50.66
-52.89
-54.70
-54.47
-51.22
-45.16
-37.64
-30.42
-24.81
-21.12
-18.82
-16.96
-14.83
-12.31
-9.84
-8.06
-7.44
-7.95
-9.15
-10.43
-11.37
-11.96
-12.64
-14.07
-16.78
-20.91
-26.08
-31.45
-35.99
-38.76
-39.19
-37.22
-33.34
-28.53
-23.99
-20.85
-19.80
-20.89
-23.59
-27.09
-30.62
-33.67
-36.07
-37.75
-38.56
-38.14
-36.14
-32.40
-27.21
-21.24
-15.39
-10.38
-6.53
-3.76
-1.81
-0.51
0.04
-0.49
-2.49
-6.09
-11.07
-16.84
-22.67
-27.98
-32.39
-35.86
-38.54
-40.72
-42.71
-44.73
-46.89
-49.01
-50.61
-50.98
-49.38
-45.23
-38.40
-29.17
-18.15
-6.06
6.46
18.90
30.95
42.39
53.10
62.96
71.79
79.29
85.02
88.45
89.16
87.10
82.73
77.00
71.13
66.27
63.07
61.50
60.94
60.54
59.63
57.98
55.85
53.72
51.99
50.68
49.56
48.25
46.44
43.92
40.45
35.72
29.53
22.10
14.29
7.52
3.06
1.37
1.61
1.88
0.19
-4.52
-11.81
-19.77
-25.72
-27.08
-22.05
-9.92
8.74
32.10
57.23
80.55
98.62
109.09
111.41
106.82
97.82
87.24
77.67
71.29
70.03
75.49
88.53
108.44
132.46
155.95
173.36
179.70
171.89
149.49
114.75
72.07
26.98
-15.27
-51.11
-79.86
-104.01
-128.51
-158.82
-198.69
-248.26
-303.50
-357.06
-400.22
-425.23
-427.43
-406.51
-366.76
-316.00
-263.44
-216.93
-180.79
-154.91
-135.75
-118.68
-100.26
-79.59
-57.87
-36.99
-18.12
-1.35
13.78
27.36
38.66
46.66
51.09
53.13
55.45
61.76
75.99
101.42
139.48
188.39
242.39
292.16
326.90
337.74
320.70
277.77
215.31
141.05
61.40
-19.02
-96.29
-165.55
-221.00
-257.89
-275.15
-276.69
-269.96
-262.48
-258.00
-255.20
-249.26
-235.07
-210.74
-178.87
-145.20
-115.72
-93.75
-78.75
-67.10
-54.37
-37.49
-16.18
7.46
30.34
49.91
65.01
75.74
82.69
86.05
85.53
80.69
71.82
60.17
47.73
36.49
27.69
21.60
17.77
15.66
15.06
16.21
19.52
25.11
32.54
40.85
48.93
55.84
61.22
65.21
68.37
71.45
75.12
79.86
85.86
93.03
100.96
108.92
115.84
120.35
121.10
117.09
108.21
95.45
80.91
67.32
57.27
52.37
52.87
57.80
65.55
74.61
83.92
92.87
100.89
107.23
110.97
111.25
107.60
99.93
88.34
72.87
53.42
30.13
3.74
-24.13
-51.28
-75.47
-95.11
-109.54
-118.89
-123.68
-124.46
-121.66
-115.73
-107.34
-97.54
-87.80
-80.02
-76.22
-78.10
-86.49
-100.88
-119.36
-139.29
-158.31
-175.19
-189.87
-202.71
-213.37
-220.22
-220.86
-213.42
-197.80
-176.12
-151.91
-128.75
-109.10
-93.90
-82.91
-75.10
-68.84
-61.68
-50.35
-31.10
-0.77
41.75
94.59
152.90
210.10
259.60
296.69
319.51
329.14
328.65
321.87
312.20
301.94
292.27
283.52
275.45
267.64
259.79
251.94
244.67
238.80
234.81
232.22
229.32
223.80
213.81
198.81
179.78
158.41
136.10
113.11
88.88
62.94
35.90
9.78
-12.73
-29.51
-40.07
-45.78
-49.25
-53.18
-59.24
-67.54
-76.68
-84.54
-89.12
-89.31
-85.25
-78.15
-69.67
-61.32
-53.99
-47.82
-42.61
-38.22
-34.95
-33.47
-34.54
-38.58
-45.44
-54.45
-64.72
-75.56
-86.55
-97.50
-108.23
-118.20
-126.39
-131.50
-132.52
-129.14
-122.12
-112.98
-103.52
-95.24
-89.03
-85.23
-83.88
-84.87
-87.89
-92.10
-95.98
-97.45
-94.46
-85.76
-71.65
-54.03
-35.74
-19.34
-5.99
5.02
15.71
28.14
43.11
59.57
75.20
87.62
95.54
99.24
100.12
99.80
99.27
98.75
97.96
96.41
93.52
88.50
80.29
67.97
51.35
31.42
10.20
-10.04
-27.78
-42.88
-56.41
-70.02
-85.00
-101.73
-119.76
-138.19
-156.32
-173.77
-190.33
-205.54
-218.36
-227.20
-230.42
-227.02
-217.23
-202.73
-186.21
-170.51
-157.59
-147.77
-139.68
-130.95
-119.32
-103.64
-84.13
-62.04
-38.78
-15.29
8.14
31.50
54.41
75.76
93.83
106.88
113.84
114.77
110.90
104.36
97.53
92.54
90.83
92.90
98.37
106.20
114.99
123.37
130.16
134.46
135.68
133.54
128.16
120.15
110.47
100.23
90.39
81.43
73.29
65.49
57.28
47.93
36.87
23.80
8.79
-7.72
-24.88
-41.63
-56.95
-70.19
-81.27
-90.78
-99.67
-108.80
-118.52
-128.30
-136.90
-142.71
-144.32
-141.07
-133.20
-121.75
-108.10
-93.49
-78.71
-64.11
-49.83
-36.03
-23.10
-11.48
-1.46
7.00
14.32
21.02
27.49
33.74
39.44
44.10
47.34
49.05
49.46
48.93
47.81
46.37
44.63
42.50
39.72
35.99
30.98
24.51
16.69
8.02
-0.55
-7.85
-12.77
-14.58
-13.13
-8.90
-2.76
4.28
11.32
17.72
23.13
27.36
30.31
31.93
32.22
31.27
29.40
27.09
24.93
23.49
23.10
23.71
24.93
26.23
27.10
27.34
27.00
26.31
25.45
24.42
22.99
20.82
17.67
13.43
8.18
2.03
-4.91
-12.55
-20.68
-28.77
-35.90
-40.87
-42.52
-40.20
-33.98
-24.69
-13.70
-2.39
8.11
17.18
24.56
30.23
34.25
36.73
37.83
37.91
37.45
37.02
37.14
38.12
40.04
42.69
45.75
48.81
51.60
53.93
55.67
56.66
56.67
55.42
52.82
49.02
44.54
39.99
35.81
32.07
28.37
24.06
18.44
10.99
1.57
-9.50
-21.36
-32.61
-41.49
-46.28
-45.90
-40.42
-31.31
-20.96
-11.95
-6.11
-4.01
-5.14
-8.41
-12.84
-17.88
-23.25
-28.52
-32.80
-34.87
-33.71
-29.09
-21.88
-13.76
-6.45
-0.98
2.76
5.77
9.33
14.25
20.50
27.34
33.68
38.63
41.69
42.80
42.24
40.47
38.01
35.42
33.14
31.30
29.61
27.37
23.85
18.60
11.85
4.52
-2.04
-6.55
-8.24
-7.15
-4.11
-0.42
2.62
4.00
3.31
0.68
-3.27
-7.76
-12.16
-16.33
-20.74
-26.18
-33.37
-42.42
-52.51
-62.23
-70.02
-74.71
-75.78
-73.11
-66.72
-56.67
-43.71
-29.93
-18.78
-13.87
-17.09
-27.30
-40.55
-52.08
-58.79
-60.78
-60.89
-62.54
-67.51
-74.91
-82.09
-86.50
-87.26
-85.13
-81.23
-75.47
-65.90
-49.57
-24.35
9.35
48.08
86.36
118.79
142.30
157.20
166.62
174.55
183.61
193.74
202.43
206.30
203.01
192.34
175.83
155.57
132.83
107.64
79.32
47.64
13.64
-20.31
-51.27
-76.70
-95.32
-107.40
-114.53
-118.88
-122.48
-126.64
-131.71
-137.28
-142.55
-146.66
-148.79
-148.12
-143.65
-134.40
-119.87
-100.58
-78.42
-56.29
-37.30
-23.57
-15.61
-12.22
-11.23
-10.49
-8.49
-4.56
1.37
9.06
18.13
28.11
38.46
48.81
59.26
70.64
84.29
101.52
122.81
147.30
172.88
196.73
216.35
230.27
238.43
241.81
241.87
239.82
236.22
230.89
223.09
211.90
196.57
176.69
152.28
123.77
91.87
57.38
21.14
-16.04
-53.33
-89.69
-123.78
-153.92
-178.30
-195.46
-204.82
-207.01
-203.90
-198.07
-191.96
-186.96
-182.95
-178.67
-172.59
-164.03
-153.61
-142.85
-133.08
-124.24
-114.44
-100.54
-79.56
-50.03
-12.66
30.06
74.97
119.40
161.80
201.68
239.05
273.82
305.40
332.54
353.33
365.47
366.74
355.74
332.36
298.21
256.15
209.36
160.27
109.82
57.42
1.59
-58.92
-123.91
-190.95
-255.29
-310.86
-351.85
-374.52
-378.50
-366.83
-344.81
-318.17
-291.23
-265.97
-242.29
-219.00
-195.02
-170.26
-145.61
-122.56
-102.28
-84.89
-69.05
-52.13
-31.08
-3.75
29.94
67.74
105.67
139.56
166.65
186.37
200.20
210.53
219.31
227.28
234.06
238.97
241.98
244.28
248.12
256.00
269.68
289.50
314.02
339.77
362.70
379.20
386.73
383.95
370.80
348.47
318.82
283.70
243.98
200.32
153.70
105.58
57.77
12.29
-28.83
-63.91
-91.90
-114.05
-131.74
-145.80
-156.76
-165.57
-173.38
-180.99
-188.65
-196.30
-207.69
-224.94
-247.12
-271.71
-296.54
-319.60
-337.64
-346.12
-340.85
-327.79
-312.63
-297.82
-284.31
-274.92
-273.40
-281.44
-297.43
-317.39
-348.91
-393.38
-442.36
-484.05
-512.95
-531.81
-547.78
-568.42
-598.94
-656.60
-744.92
-848.18
-940.98
-1003.81
-1029.04
-1018.88
-981.68
-828.25
-543.72
-195.96
120.80
357.28
513.07
607.53
660.68
687.82
699.78
688.28
651.44
600.11
550.46
511.95
485.23
466.88
453.64
443.76
424.61
391.09
349.43
310.80
281.63
261.72
247.91
237.38
228.81
214.47
191.61
164.47
140.13
122.31
110.48
102.22
95.60
89.95
81.91
70.79
59.39
51.84
50.37
54.73
62.37
69.87
73.60
69.19
55.02
33.48
10.34
-7.83
-16.45
-14.93
-6.85
1.82
5.42
1.56
-8.52
-21.59
-34.94
-47.47
-58.94
-68.20
-72.18
-67.03
-50.34
-23.39
8.77
39.45
63.24
77.92
84.51
85.56
83.22
78.53
71.82
63.86
56.41
51.51
50.13
51.23
52.42
50.33
43.21
31.28
16.56
1.71
-11.47
-22.54
-32.01
-40.38
-47.49
-52.34
-53.89
-52.02
-47.72
-42.69
-38.36
-35.12
-32.10
-27.88
-21.27
-12.29
-2.54
5.05
7.30
2.17
-10.26
-27.64
-46.13
-61.87
-71.88
-74.44
-69.08
-56.45
-38.73
-20.07
-5.92
-1.09
-7.20
-20.96
-34.86
-40.22
-31.36
-8.64
21.53
49.80
68.14
72.97
65.64
50.32
31.18
10.82
-9.53
-28.76
-44.59
-53.74
-53.08
-41.27
-19.61
7.53
33.83
52.89
60.38
55.69
42.38
27.28
18.04
19.77
32.48
50.75
66.09
70.96
62.57
44.12
23.28
8.62
5.94
16.63
38.43
67.41
99.91
132.99
163.56
187.46
199.68
195.81
174.38
138.27
94.32
51.10
15.63
-9.16
-25.00
-36.47
-47.93
-60.84
-73.21
-81.43
-83.03
-78.58
-71.45
-65.53
-62.66
-61.25
-57.11
-46.15
-27.41
-4.36
16.08
26.71
23.67
8.43
-12.77
-31.88
-42.79
-43.96
-38.76
-33.35
-33.36
-41.19
-55.20
-70.91
-83.42
-89.48
-88.26
-80.76
-68.59
-53.11
-35.29
-16.15
2.85
20.01
33.97
44.28
51.69
57.83
64.64
73.81
85.99
100.42
114.60
124.73
127.03
119.57
103.77
84.57
68.56
60.84
62.25
68.32
71.19
63.19
40.57
5.25
-36.11
-75.17
-105.22
-123.25
-129.98
-128.36
-121.77
-112.90
-103.82
-96.63
-93.93
-98.52
-112.33
-135.13
-163.87
-192.97
-215.85
-226.83
-222.91
-204.55
-175.30
-140.27
-104.25
-70.19
-38.81
-9.41
18.66
44.88
67.34
83.76
92.96
95.94
95.67
95.88
99.15
105.63
112.73
115.87
110.22
92.53
62.52
23.50
-18.44
-56.15
-83.68
-98.05
-99.85
-92.31
-79.64
-65.23
-50.88
-37.15
-24.44
-13.80
-6.97
-5.54
-9.85
-18.66
-29.47
-39.52
-46.55
-48.99
-45.68
-35.45
-17.23
9.30
42.89
80.36
117.08
148.32
170.62
182.60
184.78
178.68
165.92
147.81
125.62
100.96
76.00
53.11
34.12
19.51
8.03
-3.08
-17.18
-36.88
-62.90
-93.44
-124.55
-151.23
-168.98
-175.01
-168.93
-152.62
-129.42
-103.12
-76.93
-52.84
-31.43
-12.13
6.28
25.02
44.74
65.24
85.41
103.59
117.88
126.50
127.85
120.62
104.07
78.38
45.35
8.47
-27.51
-57.86
-79.33
-91.24
-95.66
-96.57
-98.20
-103.13
-111.13
-118.90
-121.17
-112.68
-90.24
-54.25
-8.94
38.84
81.75
114.18
133.70
141.10
139.22
131.29
119.70
105.55
89.00
69.95
48.44
24.95
0.21
-24.96
-49.69
-73.14
-94.27
-112.11
-125.92
-135.34
-140.39
-141.28
-138.00
-130.04
-116.50
-96.45
-69.69
-37.31
-1.71
34.04
67.11
95.72
119.43
138.56
153.51
164.33
170.67
172.37
169.82
164.10
156.58
148.25
139.11
127.96
112.81
91.52
62.69
26.27
-16.05
-61.10
-104.81
-143.12
-172.84
-192.24
-201.18
-200.74
-192.70
-179.00
-161.46
-141.80
-121.72
-102.90
-86.59
-73.18
-61.90
-51.05
-38.74
-23.83
-6.47
12.03
29.93
45.96
59.78
71.77
82.43
91.78
99.29
104.25
106.27
105.43
102.00
95.97
86.66
72.93
53.59
27.95
-3.70
-39.99
-78.56
-116.42
-150.49
-178.14
-197.67
-208.58
-211.52
-207.98
-199.80
-188.55
-175.00
-158.83
-138.60
-112.27
-78.19
-36.22
11.57
61.06
107.33
146.25
175.80
196.29
209.52
217.32
220.49
218.73
211.28
197.81
178.76
155.11
127.73
97.13
63.89
29.35
-4.00
-32.88
-54.52
-67.96
-74.63
-77.67
-80.29
-83.99
-87.77
-88.67
-83.41
-70.22
-49.76
-24.86
0.90
24.74
45.60
64.06
81.36
98.22
114.21
127.90
137.57
141.88
140.11
131.73
116.07
92.21
59.71
19.56
-25.13
-69.45
-107.98
-136.51
-153.46
-160.13
-159.97
-157.12
-155.05
-155.72
-159.44
-165.20
-171.16
-175.14
-175.19
-170.07
-159.61
-144.75
-127.19
-108.73
-90.79
-74.13
-59.00
-45.34
-33.04
-21.87
-11.28
-0.27
12.47
28.25
47.92
71.62
98.70
127.95
157.91
187.30
215.20
241.12
264.62
285.04
301.39
312.54
317.75
317.19
312.01
303.97
294.78
285.50
276.32
266.76
255.80
242.25
224.77
202.00
172.81
136.52
92.95
42.28
-15.00
-77.78
-143.43
-207.15
-262.30
-301.86
-320.92
-318.66
-299.02
-269.16
-236.80
-207.52
-183.46
-163.77
-146.23
-128.96
-111.39
-94.01
-77.54
-62.03
-46.54
-29.56
-9.81
12.96
37.48
61.52
82.75
99.87
113.09
123.88
134.07
144.92
156.55
168.15
178.71
187.71
195.32
201.96
207.45
210.40
208.13
197.38
175.31
140.54
93.72
37.52
-23.82
-85.25
-141.78
-189.11
-224.27
-246.01
-254.94
-253.30
-244.35
-231.41
-216.88
-201.74
-185.63
-167.52
-146.67
-123.21
-98.15
-72.93
-48.60
-25.44
-3.00
19.27
41.49
63.21
83.70
102.69
120.68
138.83
158.25
179.30
201.19
222.44
241.59
257.76
270.65
279.93
284.48
282.20
270.52
247.37
212.06
165.74
111.27
52.85
-4.48
-55.41
-95.26
-121.23
-133.51
-135.61
-133.15
-131.35
-132.40
-134.03
-130.54
-115.88
-87.11
-46.61
-1.47
39.25
67.93
80.71
77.68
61.75
37.19
8.67
-19.07
-41.77
-57.03
-65.95
-73.90
-88.91
-117.78
-161.68
-214.11
-262.83
-295.16
-303.78
-289.53
-259.66
-223.20
-186.48
-151.68
-118.60
-87.58
-61.05
-42.21
-32.33
-28.80
-25.98
-18.28
-3.64
15.16
32.12
41.40
40.17
29.76
14.39
-0.92
-12.24
-17.60
-16.86
-11.21
-2.49
7.35
16.69
24.24
28.88
29.52
25.28
16.06
3.19
-10.59
-21.88
-28.08
-28.50
-24.63
-19.32
-15.40
-14.54
-16.91
-21.57
-27.07
-31.81
-34.20
-32.74
-26.45
-15.55
-1.93
11.21
20.62
24.51
23.46
20.17
18.09
19.61
25.07
32.99
41.31
48.55
54.29
58.55
60.77
59.45
52.71
39.75
21.85
2.35
-14.74
-26.52
-32.34
-33.44
-31.63
-28.04
-22.55
-14.33
-3.00
10.46
23.45
32.98
36.92
34.80
27.90
18.88
11.20
8.19
12.28
23.92
41.90
63.85
87.11
109.35
129.17
146.19
160.78
173.63
184.49
193.21
200.26
206.57
213.24
221.13
230.53
240.92
250.75
255.30
250.53
234.78
208.91
175.34
137.33
98.38
61.72
29.66
-1.45
-34.58
-70.00
-106.18
-142.16
-178.32
-215.36
-252.89
-288.71
-326.44
-366.07
-402.86
-431.03
-448.77
-459.34
-468.28
-480.46
-497.96
-529.30
-575.85
-629.30
-676.30
-707.20
-720.60
-722.83
-724.41
-674.42
-554.28
-383.23
-200.75
-35.73
99.70
201.33
268.95
307.92
329.41
336.83
333.47
323.90
311.09
294.86
273.68
248.10
221.64
199.10
177.02
153.04
128.71
108.09
93.74
85.28
81.23
81.11
85.88
92.03
96.90
99.78
101.28
102.47
105.22
112.70
128.05
152.13
179.90
204.86
222.72
233.48
240.90
250.52
267.01
291.89
322.62
352.64
374.63
383.04
375.18
351.11
313.03
264.51
209.50
151.54
93.30
36.75
-16.47
-64.47
-105.08
-136.11
-155.85
-163.91
-161.86
-153.50
-144.28
-139.91
-144.60
-159.36
-181.52
-205.86
-226.87
-241.04
-247.78
-248.81
-246.31
-241.45
-233.84
-222.33
-206.17
-185.51
-161.19
-134.12
-105.00
-74.55
-43.98
-15.17
9.74
28.89
40.99
45.58
42.76
33.36
19.30
3.81
-9.00
-15.31
-13.15
-3.25
11.23
25.92
37.06
42.76
43.37
40.77
36.97
32.82
27.46
18.68
4.04
-17.66
-45.40
-75.69
-103.20
-122.16
-127.74
-117.43
-91.76
-54.28
-10.75
31.96
67.15
89.48
96.05
87.09
65.98
38.51
11.30
-10.02
-22.49
-26.30
-23.95
-18.49
-11.74
-3.46
8.15
24.95
47.32
73.36
99.50
122.00
138.43
148.53
153.74
156.16
157.15
156.58
152.95
144.44
130.08
110.57
88.42
67.13
49.99
38.99
34.25
34.20
36.16
37.12
34.64
27.53
16.28
3.06
-8.96
-16.70
-18.41
-14.40
-6.93
0.83
6.14
7.77
6.34
3.76
2.21
3.18
7.03
13.13
20.32
27.41
33.54
38.31
41.77
44.17
45.70
46.34
45.93
44.47
42.39
40.54
39.72
40.06
40.72
40.19
37.14
31.30
23.82
16.78
12.14
10.81
12.24
14.72
16.37
15.86
13.23
9.45
5.83
3.54
3.45
6.08
11.77
20.67
32.61
47.29
63.99
81.57
98.58
113.77
126.22
135.22
140.02
139.38
132.14
116.81
92.07
57.79
16.35
-27.74
-69.20
-103.77
-129.42
-144.82
-149.83
-145.41
-133.03
-113.58
-88.41
-60.52
-34.83
-17.82
-12.32
-18.59
-35.27
-59.59
-86.44
-110.32
-127.69
-138.43
-146.65
-153.47
-159.01
-163.14
-164.71
-159.63
-142.81
-111.00
-64.57
-8.60
55.85
127.84
204.31
262.44
278.03
242.58
171.66
108.32
61.69
33.52
23.28
23.10
28.10
36.24
47.34
61.27
76.14
86.43
91.19
90.34
83.37
70.61
54.70
39.68
28.64
21.88
15.56
8.72
1.05
-7.82
-17.54
-26.54
-32.66
-34.79
-33.78
-33.08
-34.13
-37.53
-43.44
-51.11
-58.94
-64.96
-67.87
-67.61
-65.62
-62.50
-58.37
-53.21
-46.84
-39.33
-31.23
-23.76
-18.49
-16.91
-19.23
-24.73
-32.22
-40.54
-49.14
-58.01
-67.45
-77.72
-88.88
-100.92
-113.89
-128.06
-143.56
-159.89
-175.53
-188.18
-195.28
-194.94
-186.38
-169.74
-145.54
-114.01
-74.77
-27.08
29.48
94.21
164.86
237.75
308.23
371.37
422.57
458.07
475.33
473.44
453.18
417.02
368.58
311.94
250.72
187.50
123.49
59.02
-5.56
-69.06
-129.16
-182.99
-228.21
-264.00
-291.09
-311.21
-325.91
-335.64
-339.50
-335.77
-322.79
-299.83
-267.55
-227.93
-183.81
-138.21
-93.87
-52.91
-16.72
14.08
39.53
60.26
77.28
91.71
104.44
115.75
125.19
131.74
134.41
132.82
127.55
120.03
111.87
104.21
97.28
90.40
82.37
71.97
58.37
41.32
21.21
-1.18
-24.71
-48.07
-69.90
-88.92
-104.15
-115.13
-122.05
-125.73
-127.48
-128.68
-130.43
-133.17
-136.66
-140.11
-142.56
-143.17
-141.44
-137.19
-130.47
-121.59
-110.99
-99.29
-87.24
-75.63
-65.15
-56.21
-48.87
-42.82
-37.37
-31.67
-24.87
-16.38
-6.01
5.90
18.63
31.32
43.14
53.46
61.73
67.47
70.30
70.17
67.51
63.13
57.92
52.46
46.81
40.62
33.62
26.02
18.72
12.98
9.94
9.98
12.48
16.00
18.69
18.91
15.56
8.32
-2.38
-15.44
-29.46
-43.39
-57.14
-71.77
-88.93
-109.54
-132.60
-154.77
-171.33
-178.15
-173.87
-161.12
-146.03
-136.13
-137.47
-152.32
-178.37
-209.60
-238.49
-258.37
-265.16
-258.04
-238.76
-210.44
-176.15
-137.95
-96.89
-53.36
-7.51
40.62
91.09
143.87
198.20
251.97
301.41
341.57
367.83
377.54
371.25
352.78
327.90
302.38
280.12
262.27
247.58
233.80
219.15
202.99
185.66
167.58
148.65
128.46
107.18
86.32
68.82
57.79
54.87
59.14
67.42
75.73
81.14
82.69
81.25
78.32
74.95
71.30
66.90
61.30
54.47
46.78
38.68
30.59
22.87
15.88
10.02
5.62
2.68
0.59
-2.01
-7.21
-17.42
-34.50
-58.93
-89.05
-121.35
-151.30
-174.78
-189.26
-194.21
-190.78
-180.84
-166.14
-147.90
-127.13
-105.16
-83.93
-65.64
-51.79
-42.56
-36.55
-31.53
-25.66
-18.58
-11.49
-6.09
-3.14
-1.34
2.41
11.79
29.13
54.15
84.03
114.46
141.30
161.77
174.97
181.65
183.68
183.38
182.94
183.87
186.62
190.51
194.12
196.04
195.62
193.28
190.16
187.38
185.41
183.51
179.85
171.96
157.59
135.34
105.14
68.32
27.38
-14.46
-54.02
-88.58
-116.21
-135.75
-146.67
-149.00
-143.37
-131.13
-114.40
-95.73
-77.62
-61.94
-49.55
-40.27
-33.18
-27.09
-20.92
-13.94
-5.93
2.99
12.32
21.24
28.56
32.83
32.59
26.69
14.76
-2.52
-23.37
-45.34
-65.93
-83.15
-95.95
-104.15
-108.15
-108.58
-106.02
-101.00
-94.08
-85.93
-77.41
-69.41
-62.78
-58.25
-56.25
-56.83
-59.47
-63.05
-66.12
-67.29
-65.88
-62.26
-57.72
-54.06
-52.81
-54.73
-59.59
-66.39
-73.79
-80.59
-86.01
-89.88
-92.82
-96.02
-100.97
-108.88
-120.10
-133.71
-147.50
-158.38
-163.31
-160.24
-148.90
-130.92
-109.37
-87.70
-68.66
-53.56
-42.26
-33.72
-26.70
-20.24
-13.72
-6.65
1.50
11.18
22.34
34.15
45.07
53.46
58.19
59.12
57.11
53.51
49.59
46.16
43.29
40.39
36.53
30.61
21.83
9.93
-4.76
-21.46
-39.31
-57.74
-76.86
-97.21
-119.34
-143.08
-167.18
-189.34
-206.76
-217.07
-219.07
-213.04
-200.44
-183.36
-163.70
-142.80
-121.28
-99.23
-76.51
-52.80
-27.81
-1.28
26.84
56.21
86.11
115.47
143.20
168.24
189.78
207.18
220.04
228.27
232.20
232.68
230.87
227.99
224.92
221.92
218.67
214.59
209.28
202.67
195.07
186.81
177.97
168.17
156.72
142.95
126.74
108.76
90.44
73.68
60.15
50.87
45.98
44.91
46.65
50.07
54.03
57.32
58.85
57.72
53.45
46.11
36.27
24.75
12.46
0.32
-10.79
-20.01
-26.72
-30.78
-32.67
-33.45
-34.38
-36.48
-40.32
-45.81
-52.42
-59.20
-64.90
-68.15
-67.81
-63.45
-55.57
-45.58
-35.25
-26.11
-19.09
-14.51
-12.39
-12.65
-15.07
-18.98
-23.08
-25.67
-25.25
-21.15
-13.93
-5.15
3.28
9.79
13.51
14.31
12.49
8.49
2.79
-4.08
-11.58
-19.10
-26.09
-32.23
-37.34
-41.45
-44.58
-46.74
-47.86
-47.92
-46.99
-45.35
-43.47
-41.85
-40.89
-40.66
-40.90
-41.18
-41.14
-40.74
-40.34
-40.59
-42.11
-45.27
-50.08
-56.13
-62.87
-69.70
-76.16
-81.93
-86.76
-90.33
-92.23
-91.97
-89.28
-84.38
-78.14
-72.00
-67.47
-65.60
-66.52
-69.48
-73.19
-76.35
-78.10
-78.07
-76.31
-73.08
-68.76
-63.88
-58.97
-54.38
-49.79
-43.95
-34.79
-20.04
1.81
30.67
64.60
100.28
134.04
162.86
185.05
200.27
209.06
212.24
210.57
204.66
195.13
182.69
168.11
152.08
135.09
117.55
99.89
82.72
66.67
52.23
39.58
28.52
18.75
10.01
2.26
-4.36
-9.68
-13.70
-16.60
-18.71
-20.39
-21.95
-23.65
-25.72
-28.34
-31.62
-35.46
-39.56
-43.44
-46.56
-48.41
-48.61
-46.87
-43.10
-37.47
-30.40
-22.53
-14.61
-7.25
-0.90
4.23
8.08
10.74
12.41
13.43
14.27
15.46
17.50
20.77
25.46
31.55
38.67
46.09
52.77
57.51
59.35
57.97
53.79
47.85
41.27
34.79
28.44
21.70
13.78
4.14
-7.25
-19.90
-32.81
-44.76
-54.52
-61.05
-63.59
-61.59
-54.61
-42.45
-25.40
-4.61
17.59
38.01
53.36
61.29
61.33
55.22
46.25
37.99
33.10
32.66
36.45
43.62
53.26
64.59
76.65
88.10
97.30
102.82
103.98
101.09
95.33
88.02
80.10
71.79
62.76
52.51
40.75
27.52
13.22
-1.59
-16.32
-30.43
-43.55
-55.49
-66.10
-75.22
-82.62
-88.10
-91.58
-93.26
-93.56
-93.00
-91.93
-90.37
-88.09
-84.64
-79.67
-73.06
-65.04
-56.02
-46.41
-36.41
-25.90
-14.58
-2.15
11.46
26.00
40.96
55.68
69.32
80.78
88.71
91.77
89.23
81.47
70.05
57.19
44.80
33.71
23.47
12.91
0.90
-12.96
-28.29
-44.24
-59.98
-74.79
-88.06
-99.11
-107.30
-112.36
-114.62
-115.11
-115.09
-115.58
-116.95
-118.94
-121.00
-122.73
-124.14
-125.58
-127.36
-129.45
-131.23
-131.68
-129.75
-124.85
-117.12
-107.34
-96.56
-85.52
-74.42
-62.95
-50.77
-37.94
-25.10
-13.25
-3.08
5.48
13.47
22.32
33.19
46.25
60.59
74.66
87.04
97.07
105.08
111.92
118.34
124.44
129.49
132.35
132.10
128.58
122.59
115.59
109.11
104.13
100.76
98.34
95.72
91.73
85.50
76.60
65.08
51.45
36.65
22.00
8.95
-1.26
-8.13
-12.19
-14.87
-17.99
-22.92
-29.99
-38.32
-46.24
-52.07
-54.79
-54.34
-51.43
-47.18
-42.59
-38.39
-35.00
-32.59
-31.21
-30.75
-30.90
-31.12
-30.88
-29.80
-27.89
-25.59
-23.63
-22.78
-23.50
-25.80
-29.21
-33.04
-36.67
-39.82
-42.69
-45.86
-49.96
-55.35
-61.84
-68.58
-74.24
-77.27
-76.38
-70.91
-60.97
-47.43
-31.63
-15.12
0.61
14.32
25.12
32.58
36.78
38.34
38.21
37.49
37.21
38.09
40.52
44.46
49.48
54.81
59.52
62.72
63.87
62.95
60.44
57.12
53.70
50.58
47.88
45.66
44.08
43.44
44.00
45.66
47.86
49.76
50.73
50.77
50.71
51.98
56.06
63.84
75.20
89.01
103.43
116.47
126.53
132.66
134.68
133.02
128.48
121.84
113.65
103.92
92.06
77.08
58.10
34.94
8.68
-18.51
-43.99
-65.73
-83.27
-97.77
-111.38
-126.07
-142.62
-160.44
-178.02
-193.87
-207.21
-218.15
-227.29
-235.21
-242.13
-247.92
-252.44
-255.73
-257.79
-258.18
-255.56
-247.94
-233.35
-210.93
-181.49
-147.49
-112.21
-78.63
-48.66
-23.00
-1.58
15.96
29.87
40.46
48.32
54.42
59.89
65.53
71.61
77.85
83.74
88.94
93.46
97.63
101.96
106.97
112.94
119.77
126.95
133.55
138.27
139.65
136.19
126.63
110.25
87.18
58.67
27.11
-4.33
-32.27
-53.85
-67.30
-72.23
-69.48
-60.85
-48.59
-34.99
-21.93
-10.61
-1.37
6.20
12.89
19.49
26.34
33.24
39.59
44.77
48.47
50.77
51.98
52.34
51.82
50.16
47.13
42.90
38.19
34.07
31.52
30.97
32.09
34.07
36.17
38.17
40.49
43.80
48.56
54.52
60.77
66.16
69.74
71.20
70.84
69.31
67.23
64.89
62.15
58.52
53.44
46.44
37.34
26.23
13.56
0.05
-13.44
-26.19
-37.80
-48.34
-58.30
-68.12
-77.92
-87.10
-94.49
-98.75
-98.90
-94.61
-86.28
-74.63
-60.36
-44.04
-26.23
-7.62
11.07
29.27
46.79
63.79
80.43
96.57
111.51
124.06
132.84
136.73
135.18
128.31
116.92
102.23
85.54
67.93
50.03
32.03
13.99
-3.73
-20.31
-34.43
-44.77
-50.50
-51.57
-48.66
-42.93
-35.59
-27.71
-20.03
-12.99
-6.84
-1.62
2.62
5.86
8.03
9.08
9.02
7.99
6.24
4.05
1.69
-0.58
-2.48
-3.73
-4.09
-3.59
-2.68
-2.17
-3.05
-6.04
-11.16
-17.66
-24.38
-30.32
-35.32
-40.19
-46.31
-54.78
-65.64
-77.56
-88.37
-95.96
-99.20
-98.20
-93.93
-87.42
-79.10
-68.69
-55.66
-39.98
-22.52
-4.86
11.33
25.04
36.22
45.54
53.91
61.92
69.52
76.34
81.87
85.79
88.06
88.73
87.97
85.90
82.77
78.90
74.73
70.58
66.58
62.56
57.96
52.04
44.00
33.34
20.09
5.03
-10.41
-24.54
-35.97
-44.02
-48.87
-51.22
-51.84
-51.20
-49.45
-46.68
-43.23
-39.71
-36.81
-34.91
-33.75
-32.52
-30.17
-25.97
-19.86
-12.48
-4.92
1.77
6.95
10.53
12.85
14.46
15.71
16.71
17.27
17.10
16.08
14.32
12.19
10.11
8.44
7.25
6.40
5.63
4.61
3.10
0.87
-2.32
-6.74
-12.51
-19.42
-26.68
-33.11
-37.47
-39.04
-38.07
-35.83
-34.19
-34.82
-38.52
-44.88
-52.50
-59.66
-65.02
-68.02
-68.84
-68.07
-66.23
-63.49
-59.66
-54.41
-47.54
-39.15
-29.71
-19.91
-10.52
-2.22
4.54
9.48
12.52
13.71
13.19
11.22
8.18
4.62
1.18
-1.45
-2.64
-1.92
0.86
5.41
11.03
16.75
21.74
25.65
28.81
32.04
36.16
41.44
47.40
52.92
56.84
58.43
57.56
54.52
49.58
42.76
33.85
22.80
10.11
-3.10
-15.33
-25.18
-31.77
-34.92
-34.98
-32.59
-28.38
-22.89
-16.59
-9.95
-3.41
2.68
8.13
12.88
16.91
20.21
22.70
24.39
25.43
26.25
27.39
29.31
32.13
35.52
38.80
41.10
41.71
40.25
36.76
31.66
25.61
19.24
13.06
7.32
1.97
-3.17
-8.39
-13.90
-19.76
-25.81
-31.58
-36.32
-39.10
-39.06
-35.68
-29.03
-19.79
-9.10
1.80
11.92
20.72
28.08
34.14
39.11
43.05
45.84
47.23
46.99
45.03
41.57
37.09
32.20
27.50
23.31
19.66
16.38
13.26
10.19
7.21
4.43
1.86
-0.63
-3.33
-6.56
-10.59
-15.57
-21.56
-28.50
-36.19
-44.25
-52.08
-58.92
-64.01
-66.75
-66.87
-64.54
-60.25
-54.84
-49.22
-44.31
-40.81
-39.08
-39.04
-40.15
-41.67
-42.84
-43.21
-42.68
-41.48
-39.96
-38.37
-36.84
-35.32
-33.86
-32.61
-31.82
-31.72
