1542294856.00
64.000000
-0.00
-0.00
-0.00
-0.00
-0.00
-0.00
-0.00
-0.00
-0.00
-0.00
0.00
0.01
0.01
-0.00
-0.03
-0.05
-0.05
0.00
0.13
0.36
0.66
1.01
1.37
1.72
2.06
2.40
2.79
3.24
3.80
4.42
5.06
5.66
6.20
6.68
7.15
7.68
8.31
9.14
10.09
11.04
11.88
12.56
13.14
13.76
14.65
15.96
17.91
20.32
22.90
25.38
27.58
29.57
31.68
34.32
37.81
42.54
48.15
54.10
59.83
64.97
69.58
74.14
79.34
85.71
93.76
103.00
112.62
121.73
129.77
136.75
143.30
150.75
157.77
166.64
177.95
191.79
206.97
220.57
228.25
225.36
208.53
176.87
132.76
80.05
23.07
-34.94
-92.44
-149.16
-205.23
-260.37
-313.74
-363.87
-409.83
-450.91
-486.50
-515.74
-537.23
-549.22
-549.96
-538.37
-514.21
-478.67
-433.88
-382.45
-327.02
-269.84
-212.63
-156.66
-102.95
-52.37
-5.90
35.58
71.43
101.35
125.50
144.38
158.69
169.15
176.37
180.75
182.57
182.07
179.51
175.23
169.65
163.18
156.15
148.81
141.30
133.69
126.02
118.33
110.69
103.16
95.80
88.68
81.83
75.25
68.95
62.95
57.25
51.86
46.78
42.03
37.59
33.45
29.61
26.07
22.81
19.83
17.11
14.67
12.48
10.54
8.83
7.35
6.07
4.97
4.05
3.27
2.62
2.09
1.65
1.30
1.01
0.79
0.61
0.48
0.38
0.30
0.25
0.22
0.20
0.20
0.21
0.23
0.25
0.29
0.32
0.36
0.40
0.45
0.49
0.54
0.59
0.64
0.70
0.76
0.82
0.89
0.97
1.05
1.15
1.25
1.37
1.50
1.64
1.81
1.99
2.20
2.42
2.67
2.95
3.25
3.59
3.95
4.35
4.79
5.26
5.77
6.32
6.91
7.54
8.21
8.93
9.69
10.50
11.36
12.26
13.20
14.21
15.27
16.39
17.58
18.83
20.11
21.39
22.61
23.69
24.52
24.98
24.95
24.31
23.00
20.94
18.18
14.76
10.78
6.42
1.88
-2.63
-6.88
-10.70
-13.92
-16.43
-18.18
-19.19
-19.48
-19.15
-18.33
-17.13
-15.67
-14.04
-12.32
-10.55
-8.74
-6.87
-4.97
-3.06
-1.17
0.71
2.56
4.42
6.32
8.34
10.57
12.94
15.38
17.89
20.41
22.94
25.51
28.19
31.09
34.40
37.96
41.66
45.43
49.19
52.92
56.66
60.53
64.73
69.56
74.74
80.06
85.32
90.31
94.89
99.11
103.13
107.34
112.14
117.13
121.86
125.76
128.12
128.26
125.53
119.27
108.34
95.90
82.81
69.25
54.97
39.49
22.50
4.03
-15.47
-35.23
-54.37
-72.88
-90.91
-108.83
-127.25
-146.95
-168.80
-193.39
-220.49
-248.42
-274.45
-294.76
-305.61
-304.87
-292.91
-272.53
-247.89
-222.98
-200.44
-181.59
-166.30
-153.84
-143.24
-133.48
-123.29
-111.27
-96.16
-77.41
-55.68
-32.64
-10.40
9.04
24.45
35.60
43.06
47.82
50.89
52.91
54.19
54.78
54.66
53.90
52.73
51.44
50.33
49.50
48.91
48.35
47.60
46.49
44.98
43.16
41.14
39.00
36.69
34.07
30.95
27.20
22.85
18.12
13.33
8.74
4.55
0.72
-2.89
-6.53
-10.48
-15.00
-20.31
-26.40
-32.87
-38.81
-42.91
-43.80
-40.50
-32.91
-21.81
-8.69
4.79
17.18
27.59
35.61
41.23
44.56
45.83
45.31
43.37
40.49
37.17
33.84
30.82
28.29
26.31
24.80
23.64
22.71
21.87
21.05
20.23
19.41
18.60
17.78
16.80
15.43
13.43
10.64
7.09
3.01
-1.22
-5.27
-8.92
-12.18
-15.25
-18.47
-22.16
-26.63
-32.02
-38.28
-45.01
-51.37
-56.15
-57.96
-55.73
-49.06
-38.50
-25.43
-11.61
1.37
12.42
21.14
27.58
31.96
34.41
34.98
33.80
31.21
27.77
24.24
21.26
19.21
18.16
17.85
17.86
17.84
17.58
17.11
16.57
16.12
15.74
15.16
14.00
11.85
8.53
4.17
-0.77
-5.71
-10.12
-13.78
-16.85
-19.79
-23.21
-27.67
-33.48
-40.54
-48.30
-55.66
-61.25
-63.61
-61.65
-54.96
-44.00
-30.00
-14.63
0.41
13.77
24.71
33.04
38.92
42.61
44.32
44.25
42.62
39.83
36.49
33.25
30.66
28.94
27.97
27.37
26.73
25.81
24.60
23.25
21.98
20.90
19.92
18.77
17.07
14.47
10.79
6.11
0.80
-4.67
-9.87
-14.64
-19.08
-23.53
-28.37
-33.92
-40.34
-47.64
-55.62
-63.71
-70.93
-75.88
-77.03
-73.19
-63.99
-50.09
-33.10
-15.13
1.83
16.38
27.86
36.28
42.02
45.53
47.19
47.31
46.20
44.22
41.80
39.38
37.30
35.73
34.66
33.98
33.57
33.29
33.08
32.88
32.60
32.13
31.35
30.11
28.27
25.67
22.20
17.79
12.52
6.60
0.42
-5.60
-11.20
-16.34
-21.25
-26.37
-32.17
-39.03
-47.13
-56.23
-65.55
-73.76
-79.12
-79.90
-74.92
-64.03
-48.27
-29.58
-10.25
7.70
22.93
34.88
43.54
49.21
52.27
53.14
52.35
50.46
48.11
45.81
43.91
42.51
41.52
40.79
40.17
39.65
39.29
39.17
39.29
39.52
39.57
39.12
37.91
35.83
32.95
29.44
25.47
21.08
16.24
10.91
5.14
-0.85
-6.76
-12.33
-17.45
-22.22
-26.91
-31.89
-37.55
-44.21
-52.01
-60.66
-69.31
-76.47
-80.30
-79.12
-72.04
-59.38
-42.57
-23.81
-5.29
11.29
24.98
35.51
42.99
47.66
49.79
49.69
47.84
44.86
41.48
38.34
35.90
34.32
33.50
33.23
33.32
33.66
34.18
34.82
35.42
35.66
35.23
33.91
31.65
28.66
25.22
21.60
17.87
13.95
9.66
4.86
-0.42
-5.97
-11.46
-16.58
-21.12
-25.09
-28.75
-32.57
-37.08
-42.69
-49.37
-56.53
-62.90
-66.85
-66.76
-61.58
-51.25
-36.72
-19.72
-2.29
13.73
27.10
37.19
43.96
47.69
48.83
47.90
45.44
42.00
38.15
34.41
31.24
28.96
27.69
27.35
27.74
28.52
29.37
30.00
30.23
29.88
28.88
27.15
24.69
21.56
17.87
13.72
9.20
4.32
-0.93
-6.50
-12.27
-18.02
-23.49
-28.51
-33.10
-37.48
-42.07
-47.41
-53.93
-61.70
-70.23
-78.37
-84.40
-86.49
-83.19
-73.98
-59.49
-41.36
-21.75
-2.79
13.91
27.47
37.69
44.73
48.96
50.78
50.60
48.97
46.45
43.64
41.03
38.96
37.53
36.74
36.46
36.57
36.92
37.42
37.95
38.43
38.74
38.73
38.21
36.93
34.70
31.47
27.37
22.76
18.07
13.69
9.72
6.06
2.41
-1.53
-5.95
-10.83
-15.97
-21.06
-25.88
-30.29
-34.35
-38.29
-42.49
-47.35
-53.22
-60.22
-68.04
-75.82
-82.15
-85.31
-83.72
-76.49
-63.78
-46.88
-27.83
-8.89
8.07
21.93
32.38
39.63
44.17
46.45
46.88
45.85
43.83
41.37
39.05
37.34
36.46
36.35
36.69
37.13
37.40
37.48
37.46
37.51
37.67
37.81
37.59
36.66
34.82
32.05
28.59
24.76
20.91
17.24
13.85
10.70
7.66
4.53
1.17
-2.53
-6.57
-10.88
-15.34
-19.79
-24.08
-28.12
-31.93
-35.63
-39.54
-44.06
-49.61
-56.37
-64.01
-71.58
-77.53
-80.09
-77.80
-70.02
-57.23
-40.94
-23.21
-6.12
8.77
20.64
29.34
35.06
38.12
38.85
37.59
34.82
31.18
27.39
24.14
21.90
20.80
20.71
21.29
22.20
23.20
24.24
25.35
26.51
27.59
28.29
28.23
27.13
24.94
21.88
18.38
14.84
11.54
8.52
5.64
2.68
-0.59
-4.29
-8.46
-13.03
-17.86
-22.70
-27.26
-31.29
-34.62
-37.36
-39.87
-42.77
-46.75
-52.26
-59.18
-66.65
-73.16
-76.84
-76.03
-69.87
-58.54
-43.28
-26.05
-8.90
6.46
19.00
28.38
34.71
38.37
39.79
39.41
37.73
35.28
32.66
30.34
28.64
27.63
27.17
27.04
27.04
27.11
27.24
27.50
27.88
28.28
28.47
28.19
27.19
25.28
22.47
18.90
14.88
10.83
7.11
3.87
1.01
-1.83
-5.14
-9.25
-14.18
-19.58
-24.88
-29.55
-33.33
-36.34
-39.00
-41.90
-45.62
-50.60
-57.00
-64.55
-72.40
-79.10
-82.84
-81.95
-75.48
-63.61
-47.69
-29.84
-12.26
3.34
16.02
25.58
32.30
36.61
38.92
39.58
38.96
37.43
35.40
33.25
31.27
29.65
28.45
27.64
27.12
26.75
26.50
26.40
26.55
27.03
27.75
28.43
28.63
27.92
25.99
22.86
18.85
14.52
10.45
6.98
4.15
1.63
-1.16
-4.79
-9.56
-15.28
-21.32
-26.71
-30.60
-32.61
-33.11
-33.17
-34.16
-37.10
-42.08
-47.87
-52.24
-52.76
-47.61
-36.04
-18.23
5.11
33.12
64.92
99.50
136.05
174.50
216.07
262.97
317.09
378.08
441.97
501.40
547.76
574.18
577.99
561.26
529.23
487.86
441.73
393.34
343.82
293.98
245.10
198.85
156.75
119.41
86.30
56.10
27.31
-1.08
-29.13
-56.06
-80.74
-102.43
-121.21
-138.10
-154.79
-172.92
-193.58
-217.13
-243.43
-272.21
-303.13
-335.54
-367.97
-397.91
-422.11
-437.51
-442.37
-436.96
-423.49
-405.24
-385.35
-365.87
-347.53
-329.99
-312.36
-293.56
-272.25
-246.99
-216.40
-179.90
-138.42
-94.86
-53.54
-19.17
4.84
17.69
21.43
20.17
18.36
19.17
23.37
29.40
34.30
35.17
30.51
20.84
8.64
-2.58
-9.42
-9.78
-3.57
7.15
18.77
27.17
29.07
23.05
10.01
-7.35
-25.54
-41.58
-53.76
-61.83
-66.50
-68.89
-70.05
-71.00
-72.85
-76.74
-83.34
-92.24
-101.73
-109.25
-112.69
-111.77
-108.65
-107.50
-112.87
-128.00
-153.92
-189.75
-233.84
-284.47
-339.64
-395.95
-447.73
-487.23
-506.59
-500.51
-468.20
-413.82
-344.80
-269.30
-194.03
-123.14
-58.57
-0.71
50.88
97.32
140.52
183.23
228.60
278.86
333.63
388.46
434.74
461.79
461.01
430.24
375.97
311.69
252.63
209.46
184.16
170.44
158.26
139.67
112.63
81.04
51.52
29.45
16.75
12.20
13.40
18.64
27.33
39.26
53.31
67.13
77.83
83.28
83.20
79.20
74.02
70.20
69.06
70.30
72.39
73.34
71.64
66.70
59.08
50.16
41.60
34.79
30.43
28.49
28.28
28.85
29.23
28.69
26.85
23.62
19.26
14.21
9.02
4.16
-0.12
-3.91
-7.57
-11.56
-16.28
-21.96
-28.61
-36.14
-44.39
-53.08
-61.60
-68.95
-73.75
-74.62
-70.57
-61.45
-48.07
-32.02
-15.30
0.26
13.32
23.22
29.93
33.86
35.62
35.89
35.25
34.17
33.07
32.24
31.90
32.17
33.06
34.54
36.55
38.99
41.69
44.43
46.89
48.75
49.81
50.02
49.54
48.63
47.45
45.95
43.80
40.41
35.18
27.75
18.16
6.95
-4.96
-16.53
-26.90
-35.64
-42.84
-49.03
-54.98
-61.33
-68.29
-75.36
-81.36
-84.63
-83.56
-77.07
-65.12
-48.71
-29.63
-9.94
8.55
24.58
37.54
47.31
54.08
58.22
60.12
60.28
59.23
57.51
55.60
53.81
52.29
50.99
49.81
48.68
47.66
46.93
46.72
47.11
47.90
48.71
49.03
48.44
46.80
44.27
41.19
37.94
34.81
31.82
28.85
25.63
21.88
17.43
12.33
6.81
1.29
-3.81
-8.23
-11.97
-15.47
-19.37
-24.43
-31.14
-39.56
-49.05
-58.28
-65.52
-68.97
-67.35
-60.19
-48.10
-32.53
-15.46
1.20
15.99
28.06
37.17
43.44
47.19
48.77
48.63
47.26
45.27
43.27
41.70
40.73
40.26
39.95
39.41
38.36
36.76
34.72
32.45
30.09
27.65
25.02
22.00
18.48
14.48
10.22
6.05
2.40
-0.40
-2.19
-3.06
-3.34
-3.49
-4.00
-5.23
-7.29
-9.98
-12.87
-15.56
-17.85
-19.86
-21.98
-24.70
-28.36
-33.02
-38.32
-43.55
-47.68
-49.57
-48.23
-43.13
-34.39
-22.87
-9.94
2.95
14.60
24.33
31.89
37.27
40.52
41.70
40.99
38.77
35.70
32.51
29.79
27.86
26.65
25.87
25.20
24.45
23.64
22.99
22.74
22.97
23.55
24.11
24.17
23.32
21.42
18.59
15.22
11.75
8.49
5.49
2.54
-0.69
-4.46
-8.80
-13.44
-17.96
-21.91
-25.02
-27.31
-29.06
-30.71
-32.79
-35.72
-39.73
-44.68
-50.04
-54.86
-57.92
-58.01
-54.32
-46.68
-35.75
-22.79
-9.41
2.91
13.18
20.98
26.36
29.62
31.11
31.11
29.92
27.92
25.57
23.32
21.48
20.10
18.98
17.93
16.88
15.96
15.45
15.55
16.28
17.40
18.50
19.18
19.13
18.26
16.61
14.34
11.72
9.00
6.37
3.94
1.64
-0.66
-3.15
-5.93
-8.97
-12.10
-15.03
-17.49
-19.29
-20.48
-21.32
-22.35
-24.20
-27.40
-32.11
-37.97
-44.00
-48.80
-50.90
-49.23
-43.41
-33.91
-21.86
-8.77
3.88
14.85
23.33
28.88
31.43
31.18
28.62
24.43
19.41
14.36
9.94
6.66
4.79
4.41
5.40
7.36
9.67
11.53
12.17
11.04
7.99
3.21
-2.82
-9.61
-16.68
-23.65
-30.07
-35.29
-38.54
-39.11
-36.71
-31.67
-25.01
-18.15
-12.45
-8.84
-7.50
-8.04
-9.67
-11.61
-13.32
-14.60
-15.51
-16.32
-17.32
-18.71
-20.52
-22.43
-23.86
-24.01
-22.13
-17.87
-11.35
-3.26
5.45
13.80
21.02
26.64
30.35
32.05
31.70
29.46
25.69
20.95
15.91
11.14
7.03
3.72
1.17
-0.74
-2.06
-2.80
-2.89
-2.35
-1.31
-0.09
0.93
1.41
1.17
0.29
-0.98
-2.31
-3.49
-4.49
-5.44
-6.58
-8.12
-10.09
-12.34
-14.57
-16.46
-17.80
-18.59
-19.11
-19.81
-21.23
-23.79
-27.66
-32.59
-37.86
-42.35
-44.78
-44.05
-39.60
-31.66
-21.18
-9.61
1.58
11.23
18.68
23.78
26.72
27.83
27.56
26.37
24.70
22.95
21.35
19.95
18.61
17.07
15.12
12.65
9.81
6.99
4.68
3.35
3.31
4.55
6.73
9.35
11.89
13.97
15.47
16.48
17.18
17.69
18.02
18.04
17.48
16.13
13.79
10.41
6.07
0.94
-4.75
-10.76
-16.94
-23.19
-29.52
-36.09
-43.06
-50.54
-58.38
-66.01
-72.49
-76.68
-77.69
-75.15
-69.42
-61.44
-52.39
-43.25
-34.57
-26.45
-18.75
-11.36
-4.30
2.21
7.98
13.00
17.45
21.58
25.50
29.05
31.86
33.56
34.00
33.35
32.12
30.76
29.58
28.58
27.57
26.36
24.99
23.67
22.65
21.96
21.29
20.09
17.74
13.85
8.41
1.82
-5.35
-12.48
-19.12
-25.01
-30.10
-34.45
-38.21
-41.57
-44.70
-47.65
-50.16
-51.66
-51.30
-48.23
-41.93
-32.47
-20.63
-7.75
4.63
15.16
23.01
27.94
30.32
30.76
29.96
28.48
26.73
24.97
23.40
22.15
21.29
20.79
20.52
20.32
20.03
19.57
18.90
17.99
16.86
15.56
14.16
12.79
11.51
10.27
8.88
7.02
4.43
1.07
-2.87
-7.00
-10.89
-14.21
-16.86
-18.93
-20.60
-22.06
-23.49
-25.18
-27.48
-30.75
-34.97
-39.56
-43.26
-44.56
-42.23
-35.81
-25.91
-13.88
-1.33
10.40
20.43
28.38
34.08
37.49
38.66
37.81
35.39
31.99
28.22
24.51
21.09
18.04
15.34
12.96
10.85
8.97
7.27
5.72
4.25
2.81
1.28
-0.47
-2.61
-5.29
-8.58
-12.49
-16.96
-21.82
-26.79
-31.51
-35.56
-38.57
-40.32
-40.84
-40.43
-39.56
-38.76
-38.36
-38.33
-38.23
-37.24
-34.48
-29.22
-21.26
-10.95
0.88
13.15
24.85
35.17
43.53
49.54
52.90
53.43
51.20
46.67
40.62
34.03
27.78
22.36
17.89
14.18
11.03
8.45
6.66
6.01
6.73
8.70
11.40
14.03
15.76
15.95
14.37
11.23
7.02
2.36
-2.30
-6.79
-11.32
-16.31
-22.30
-29.72
-38.64
-48.62
-58.63
-67.21
-72.73
-73.85
-69.95
-61.33
-49.13
-35.02
-20.74
-7.71
3.15
11.42
17.06
20.27
21.43
21.07
19.81
18.36
17.30
17.01
17.56
18.69
20.00
21.09
21.70
21.73
21.23
20.18
18.48
15.98
12.60
8.45
3.88
-0.60
-4.47
-7.39
-9.33
-10.57
-11.66
-13.29
-16.18
-20.86
-27.48
-35.59
-44.04
-51.12
-54.92
-53.92
-47.55
-36.40
-22.12
-6.88
7.27
18.87
27.21
32.27
34.42
34.24
32.43
29.81
27.23
25.46
24.91
25.58
27.09
28.84
30.43
31.75
33.04
34.66
36.88
39.60
42.33
44.31
44.69
42.84
38.44
31.64
23.02
13.42
3.68
-5.56
-14.19
-22.58
-31.45
-41.41
-52.55
-64.11
-74.53
-81.82
-84.14
-80.47
-70.96
-56.90
-40.39
-23.69
-8.70
3.40
12.19
17.78
20.62
21.30
20.56
19.24
18.14
17.81
18.36
19.51
20.77
21.77
22.43
22.94
23.57
24.51
25.83
27.57
29.71
32.21
34.81
37.02
38.23
38.06
36.54
34.20
31.72
29.45
27.23
24.39
20.14
13.91
5.50
-4.95
-17.06
-30.13
-43.06
-54.24
-61.83
-64.28
-60.93
-52.38
-40.37
-27.24
-15.17
-5.56
1.17
5.44
8.04
9.75
10.99
11.73
11.57
10.10
7.12
2.96
-1.55
-5.36
-7.59
-7.87
-6.50
-4.26
-2.14
-1.03
-1.54
-3.72
-6.68
-7.98
-3.57
11.40
40.54
84.03
137.41
192.32
239.02
269.70
280.64
272.64
249.64
216.78
179.08
141.03
106.68
79.46
61.48
52.66
50.60
51.28
50.61
45.61
35.07
19.38
0.30
-19.29
-35.68
-44.89
-43.79
-31.40
-9.81
15.96
39.30
53.91
55.54
42.47
15.06
-25.01
-74.96
-130.29
-184.56
-230.08
-260.13
-271.39
-265.37
-247.60
-225.05
-203.20
-184.50
-168.83
-155.10
-142.81
-132.24
-123.53
-115.61
-106.11
-92.53
-73.75
-50.87
-26.71
-4.43
13.72
26.98
35.89
41.65
45.43
48.00
49.66
50.42
50.19
48.97
47.04
44.79
42.66
40.95
39.70
38.77
37.91
36.85
35.39
33.38
30.75
27.51
23.70
19.45
14.94
10.42
6.10
2.12
-1.57
-5.21
-9.21
-13.99
-19.82
-26.61
-33.72
-40.03
-44.12
-44.61
-40.69
-32.35
-20.50
-6.81
6.86
18.88
28.28
34.83
38.80
40.72
41.08
40.22
38.45
36.08
33.51
31.13
29.22
27.88
26.97
26.30
25.74
25.24
24.91
24.81
24.91
24.97
24.64
23.44
21.00
17.10
11.79
5.46
-1.27
-7.66
-13.05
-17.00
-19.41
-20.50
-20.71
-20.61
-20.77
-21.62
-23.32
-25.57
-27.60
-28.28
-26.48
-21.48
-13.32
-2.90
8.36
18.95
27.72
34.12
38.11
39.96
40.00
38.54
35.90
32.53
28.95
25.72
23.24
21.68
20.97
20.92
21.25
21.73
22.16
22.39
22.30
21.84
21.01
19.83
18.37
16.64
14.63
12.29
9.61
6.58
3.27
-0.23
-3.74
-7.08
-10.05
-12.51
-14.45
-16.00
-17.43
-19.10
-21.44
-24.74
-29.01
-33.86
-38.45
-41.57
-42.02
-39.01
-32.47
-23.15
-12.41
-1.80
7.37
14.43
19.31
22.48
24.55
26.00
27.03
27.50
27.06
25.41
22.43
18.31
13.44
8.27
3.16
-1.69
-6.11
-9.88
-12.68
-14.11
-13.87
-11.88
-8.39
-3.97
0.67
4.78
7.76
9.22
9.09
7.52
4.85
1.47
-2.23
-5.98
-9.54
-12.80
-15.65
-18.17
-20.58
-23.15
-26.05
-29.10
-31.65
-32.72
-31.35
-27.06
-20.05
-11.26
-1.95
6.66
13.77
19.00
22.32
23.86
23.77
22.23
19.60
16.37
13.11
10.35
8.38
7.19
6.55
6.09
5.51
4.60
3.30
1.65
-0.21
-2.14
-4.03
-5.90
-7.85
-10.05
-12.60
-15.46
-18.41
-21.09
-23.18
-24.47
-24.95
-24.77
-24.18
-23.48
-23.02
-23.16
-24.24
-26.38
-29.35
-32.41
-34.42
-34.15
-30.73
-24.02
-14.71
-4.09
6.34
15.30
22.01
26.22
28.11
28.04
26.51
23.98
20.96
17.86
15.05
12.74
11.01
9.86
9.24
9.11
9.40
10.08
11.04
12.21
13.49
14.73
15.73
16.24
16.04
14.98
13.07
10.45
7.34
3.91
0.22
-3.69
-7.73
-11.69
-15.26
-18.15
-20.29
-21.86
-23.32
-25.22
-28.02
-31.89
-36.50
-41.04
-44.34
-45.17
-42.65
-36.56
-27.52
-16.80
-5.94
3.68
11.25
16.50
19.67
21.16
21.40
20.74
19.48
17.90
16.28
14.88
13.85
13.21
12.90
12.82
12.91
13.22
13.82
14.78
16.03
17.30
18.20
18.31
17.40
15.47
12.79
9.76
6.79
4.10
1.78
-0.27
-2.23
-4.32
-6.75
-9.59
-12.73
-15.91
-18.74
-20.93
-22.48
-23.73
-25.29
-27.75
-31.41
-35.99
-40.65
-44.17
-45.31
-43.22
-37.70
-29.25
-18.95
-8.15
1.91
10.30
16.58
20.72
22.97
23.66
23.10
21.57
19.38
16.87
14.47
12.56
11.39
10.99
11.13
11.45
11.63
11.56
11.33
11.11
11.00
10.90
10.60
9.88
8.68
7.15
5.51
3.92
2.38
0.69
-1.41
-4.02
-7.09
-10.35
-13.48
-16.25
-18.59
-20.61
-22.55
-24.70
-27.35
-30.67
-34.64
-38.89
-42.65
-44.89
-44.54
-40.90
-33.95
-24.42
-13.62
-2.96
6.38
13.80
19.16
22.67
24.58
25.10
24.38
22.64
20.22
17.59
15.19
13.31
12.08
11.41
11.14
11.10
11.21
11.43
11.68
11.81
11.62
10.93
9.63
7.77
5.55
3.21
0.93
-1.29
-3.59
-6.18
-9.18
-12.55
-16.01
-19.26
-22.04
-24.31
-26.28
-28.33
-30.91
-34.40
-38.99
-44.55
-50.51
-55.90
-59.42
-59.77
-56.11
-48.33
-37.24
-24.27
-11.14
0.74
10.50
17.91
23.16
26.63
28.63
29.35
28.95
27.62
25.65
23.43
21.41
19.85
18.90
18.48
18.43
18.59
18.90
19.42
20.20
21.22
22.28
23.02
23.03
22.03
20.01
17.18
13.96
10.78
7.89
5.25
2.65
-0.23
-3.55
-7.33
-11.35
-15.29
-18.89
-22.06
-24.95
-27.86
-31.19
-35.28
-40.33
-46.33
-52.89
-59.19
-63.96
-65.77
-63.43
-56.45
-45.27
-31.24
-16.16
-1.77
10.66
20.55
27.88
32.92
36.01
37.42
37.42
36.28
34.39
32.19
30.14
28.62
27.82
27.73
28.19
28.97
29.82
30.64
31.42
32.17
32.89
33.42
33.56
33.04
31.68
29.44
26.50
23.12
19.65
16.35
13.32
10.50
7.71
4.71
1.36
-2.36
-6.30
-10.24
-13.96
-17.33
-20.41
-23.38
-26.50
-30.03
-34.24
-39.36
-45.49
-52.46
-59.58
-65.68
-69.20
-68.69
-63.32
-53.24
-39.59
-24.18
-8.91
4.79
16.11
24.85
31.15
35.22
37.22
37.37
36.00
33.61
30.84
28.30
26.41
25.34
25.01
25.23
25.78
26.50
27.30
28.16
29.02
29.78
30.26
30.23
29.43
27.73
25.16
21.97
18.56
15.29
12.37
9.71
7.03
3.97
0.29
-3.98
-8.55
-13.03
-17.06
-20.50
-23.42
-26.10
-28.97
-32.52
-37.11
-42.84
-49.27
-55.42
-59.85
-61.06
-57.98
-50.34
-38.83
-24.84
-10.06
3.97
16.24
26.20
33.71
38.84
41.70
42.51
41.54
39.25
36.20
33.00
30.17
28.01
26.60
25.82
25.47
25.41
25.56
25.92
26.43
26.95
27.25
27.04
26.09
24.30
21.72
18.55
15.04
11.39
7.69
3.88
-0.22
-4.78
-9.83
-15.18
-20.43
-25.15
-29.09
-32.30
-35.21
-38.47
-42.77
-48.53
-55.73
-63.75
-71.40
-77.12
-79.29
-76.73
-69.03
-56.72
-41.16
-24.15
-7.46
7.49
19.92
29.54
36.44
40.90
43.29
44.04
43.62
42.46
40.93
39.30
37.69
36.17
34.78
33.57
32.65
32.18
32.29
33.03
34.30
35.76
36.98
37.41
36.64
34.49
31.12
26.97
22.55
18.31
14.38
10.55
6.42
1.61
-3.99
-10.14
-16.29
-21.84
-26.41
-29.92
-32.77
-35.53
-38.88
-43.39
-49.30
-56.44
-64.10
-71.06
-75.68
-76.36
-71.94
-62.21
-48.04
-31.18
-13.72
2.48
16.26
27.21
35.46
41.33
45.11
46.97
47.13
45.99
44.09
42.03
40.24
38.90
37.90
37.04
36.14
35.23
34.49
34.22
34.61
35.64
36.98
38.10
38.41
37.48
35.21
31.83
27.85
23.81
20.07
16.63
13.25
9.55
5.28
0.45
-4.65
-9.61
-14.07
-17.84
-21.05
-23.99
-27.06
-30.67
-35.12
-40.55
-46.82
-53.35
-59.06
-62.54
-62.43
-57.83
-48.70
-35.93
-21.07
-5.86
8.19
20.09
29.40
36.05
40.11
41.78
41.33
39.24
36.13
32.73
29.67
27.33
25.82
25.00
24.62
24.49
24.54
24.82
25.39
26.21
27.11
27.74
27.78
26.92
25.03
22.22
18.78
15.07
11.35
7.74
4.12
0.29
-3.90
-8.48
-13.26
-18.02
-22.50
-26.53
-30.10
-33.32
-36.48
-39.96
-44.26
-49.75
-56.45
-63.71
-70.22
-74.21
-74.03
-68.75
-58.50
-44.49
-28.57
-12.68
1.73
13.84
23.45
30.66
35.70
38.72
39.90
39.52
37.99
35.84
33.56
31.58
30.10
29.20
28.79
28.80
29.15
29.81
30.71
31.72
32.64
33.21
33.22
32.55
31.22
29.34
27.03
24.38
21.44
18.26
14.88
11.42
7.98
4.60
1.25
-2.14
-5.68
-9.41
-13.26
-17.16
-20.97
-24.59
-27.98
-31.16
-34.22
-37.38
-40.99
-45.48
-51.16
-57.96
-65.21
-71.57
-75.32
-74.89
-69.36
-58.88
-44.62
-28.44
-12.31
2.21
14.19
23.37
29.95
34.28
36.75
37.73
37.55
36.59
35.22
33.78
32.47
31.40
30.60
30.08
29.90
30.17
30.92
32.09
33.49
34.79
35.70
35.93
35.37
34.03
32.01
29.45
26.48
23.22
19.78
16.29
12.85
9.54
6.38
3.30
0.21
-2.98
-6.31
-9.76
-13.25
-16.69
-20.02
-23.26
-26.46
-29.65
-32.94
-36.47
-40.51
-45.36
-51.13
-57.57
-63.83
-68.51
-70.08
-67.33
-59.88
-48.32
-34.07
-18.87
-4.32
8.42
18.78
26.57
31.87
34.85
35.81
35.20
33.56
31.50
29.51
27.91
26.75
25.98
25.47
25.18
25.10
25.31
25.79
26.48
27.18
27.65
27.70
27.23
26.19
24.57
22.39
19.69
16.55
13.14
9.71
6.45
3.46
0.70
-2.04
-4.96
-8.19
-11.67
-15.19
-18.49
-21.45
-24.06
-26.51
-29.06
-31.94
-35.38
-39.52
-44.40
-49.78
-55.02
-59.05
-60.51
-58.25
-51.72
-41.27
-28.13
-13.96
-0.39
11.41
20.85
27.78
32.30
34.53
34.65
32.95
29.91
26.20
22.55
19.58
17.67
16.81
16.73
17.00
17.27
17.40
17.49
17.82
18.54
19.56
20.47
20.70
19.78
17.53
14.15
10.18
6.20
2.62
-0.49
-3.31
-6.20
-9.49
-13.31
-17.59
-22.04
-26.33
-30.19
-33.52
-36.46
-39.29
-42.42
-46.25
-51.06
-56.88
-63.27
-69.26
-73.44
-74.32
-70.79
-62.56
-50.30
-35.41
-19.65
-4.63
8.52
19.24
27.39
33.13
36.66
38.26
38.22
36.94
34.88
32.55
30.38
28.65
27.42
26.65
26.20
25.98
25.99
26.34
27.06
28.10
29.18
29.90
29.79
28.53
26.00
22.43
18.25
14.02
10.20
6.99
4.28
1.70
-1.22
-4.76
-8.93
-13.48
-17.95
-21.96
-25.35
-28.27
-31.14
-34.53
-38.94
-44.67
-51.65
-59.29
-66.53
-71.92
-73.93
-71.37
-63.84
-51.86
-36.80
-20.55
-4.96
8.57
19.34
27.27
32.69
36.07
37.78
38.14
37.40
35.94
34.16
32.49
31.21
30.37
29.78
29.20
28.53
27.88
27.57
27.84
28.77
30.08
31.27
31.81
31.33
29.74
27.23
24.14
20.85
17.64
14.68
11.92
9.16
6.14
2.60
-1.53
-6.12
-10.82
-15.20
-18.99
-22.13
-24.91
-27.84
-31.47
-36.23
-42.29
-49.33
-56.62
-62.93
-66.83
-67.00
-62.59
-53.57
-40.82
-25.89
-10.59
3.47
15.20
24.15
30.33
34.02
35.59
35.45
34.06
31.98
29.74
27.80
26.43
25.69
25.46
25.58
25.90
26.35
26.94
27.63
28.37
29.05
29.47
29.45
28.80
27.42
25.32
22.61
19.55
16.41
13.40
10.60
7.96
5.28
2.33
-1.05
-4.92
-9.19
-13.62
-17.93
-21.83
-25.19
-28.08
-30.85
-34.02
-38.15
-43.57
-50.15
-57.14
-63.30
-67.17
-67.44
-63.41
-55.09
-43.25
-29.19
-14.43
-0.39
11.81
21.50
28.45
32.77
34.78
34.93
33.68
31.53
29.01
26.65
24.90
24.06
24.17
25.01
26.22
27.46
28.49
29.26
29.80
30.18
30.40
30.35
29.89
28.85
27.10
24.64
21.55
18.02
14.27
10.47
6.67
2.85
-1.09
-5.25
-9.66
-14.25
-18.85
-23.26
-27.32
-30.92
-34.09
-37.01
-40.04
-43.65
-48.35
-54.41
-61.65
-69.21
-75.68
-79.39
-78.92
-73.56
-63.50
-49.83
-34.14
-18.14
-3.23
9.67
20.10
27.95
33.37
36.62
38.07
38.21
37.55
36.58
35.66
34.98
34.55
34.27
34.06
33.95
34.06
34.55
35.46
36.64
37.76
38.38
38.19
37.07
35.19
32.83
30.32
27.79
25.18
22.33
19.06
15.38
11.45
7.55
3.93
0.66
-2.36
-5.38
-8.66
-12.37
-16.51
-20.94
-25.43
-29.73
-33.68
-37.27
-40.67
-44.18
-48.22
-53.19
-59.32
-66.47
-73.94
-80.47
-84.44
-84.32
-79.16
-68.94
-54.66
-38.03
-20.95
-4.99
8.86
20.20
29.03
35.50
39.73
41.94
42.43
41.69
40.32
38.86
37.71
36.98
36.62
36.50
36.56
36.87
37.54
38.66
40.16
41.80
43.21
44.02
43.97
43.01
41.24
38.92
36.28
33.48
30.55
27.37
23.87
20.03
16.02
12.10
8.52
5.37
2.52
-0.37
-3.69
-7.66
-12.29
-17.29
-22.24
-26.75
-30.62
-33.95
-37.09
-40.57
-44.88
-50.39
-57.10
-64.54
-71.71
-77.14
-79.26
-76.82
-69.36
-57.39
-42.30
-25.92
-10.01
4.16
15.95
25.18
31.96
36.44
38.82
39.35
38.46
36.68
34.59
32.69
31.29
30.48
30.24
30.50
31.17
32.22
33.61
35.25
36.94
38.34
39.12
39.00
37.93
36.05
33.70
31.18
28.65
26.10
23.36
20.25
16.71
12.87
8.97
5.28
1.91
-1.15
-4.11
-7.21
-10.64
-14.40
-18.36
-22.23
-25.77
-28.88
-31.67
-34.44
-37.63
-41.62
-46.69
-52.76
-59.35
-65.49
-69.81
-70.84
-67.47
-59.34
-47.06
-32.08
-16.26
-1.30
11.65
22.03
29.80
35.11
38.08
38.88
37.75
35.12
31.63
27.99
24.83
22.57
21.35
21.11
21.59
22.52
23.63
24.72
25.67
26.39
26.78
26.75
26.19
25.01
23.18
20.77
17.89
14.74
11.51
8.33
5.24
2.13
-1.19
-4.95
-9.21
-13.82
-18.48
-22.77
-26.42
-29.36
-31.81
-34.20
-37.02
-40.73
-45.62
-51.60
-58.13
-64.13
-68.16
-68.76
-64.97
-56.60
-44.44
-29.89
-14.62
-0.04
12.88
23.64
32.01
37.87
41.18
42.07
40.88
38.26
35.00
31.86
29.36
27.69
26.75
26.31
26.14
26.14
26.28
26.60
27.06
27.55
27.87
27.81
27.18
25.83
23.71
20.86
17.41
13.57
9.54
5.49
1.46
-2.61
-6.84
-11.27
-15.88
-20.57
-25.26
-29.87
-34.39
-38.84
-43.35
-48.11
-53.49
-59.79
-67.11
-74.97
-82.27
-87.36
-88.53
-84.59
-75.28
-61.46
-44.77
-27.14
-10.24
4.78
17.40
27.47
35.07
40.35
43.47
44.71
44.45
43.15
41.28
39.22
37.20
35.33
33.67
32.30
31.31
30.82
30.86
31.34
32.07
32.78
33.24
33.29
32.82
31.74
29.95
27.40
24.14
20.41
16.53
12.82
9.42
6.18
2.75
-1.23
-5.92
-11.16
-16.55
-21.63
-26.12
-30.00
-33.53
-37.17
-41.44
-46.84
-53.72
-62.12
-71.50
-80.61
-87.66
-90.69
-88.20
-79.69
-65.86
-48.43
-29.55
-11.23
5.14
18.86
29.75
37.91
43.51
46.81
48.15
48.06
47.18
46.08
45.16
44.49
43.91
43.17
42.18
41.10
40.30
40.15
40.80
42.10
43.57
44.66
44.91
44.11
42.32
39.77
36.74
33.42
29.90
26.19
22.31
18.33
14.40
10.62
7.06
3.56
-0.12
-4.23
-8.92
-14.05
-19.30
-24.28
-28.73
-32.65
-36.30
-40.13
-44.57
-50.03
-56.67
-64.39
-72.67
-80.47
-86.30
-88.52
-85.75
-77.45
-64.08
-47.11
-28.55
-10.40
5.82
19.27
29.72
37.32
42.33
45.07
45.92
45.30
43.73
41.73
39.71
37.96
36.57
35.56
34.94
34.73
34.99
35.79
37.10
38.78
40.54
42.01
42.83
42.74
41.67
39.72
37.15
34.28
31.33
28.37
25.35
22.10
18.48
14.50
10.34
6.34
2.84
-0.02
-2.37
-4.59
-7.14
-10.34
-14.24
-18.60
-23.03
-27.16
-30.84
-34.15
-37.40
-40.99
-45.32
-50.69
-57.09
-63.98
-70.28
-74.46
-74.91
-70.49
-60.98
-47.22
-30.90
-14.05
1.59
14.83
25.19
32.68
37.53
40.10
40.71
39.78
37.75
35.11
32.31
29.76
27.74
26.39
25.74
25.71
26.15
26.91
27.91
29.08
30.37
31.60
32.53
32.84
32.29
30.79
28.49
25.69
22.71
19.73
16.77
13.78
10.68
7.50
4.35
1.30
-1.62
-4.54
-7.63
-11.07
-14.91
-19.03
-23.23
-27.23
-30.88
-34.13
-37.11
-40.12
-43.53
-47.72
-52.86
-58.74
-64.60
-69.18
-71.00
-68.82
-62.04
-51.02
-36.95
-21.51
-6.44
6.92
17.81
25.98
31.50
34.62
35.64
34.95
33.07
30.57
28.02
25.83
24.22
23.21
22.70
22.60
22.86
23.50
24.51
25.84
27.33
28.78
29.97
30.67
30.68
29.82
27.99
25.22
21.73
17.82
13.84
10.07
6.60
3.39
0.29
-2.91
-6.37
-10.18
-14.29
-18.60
-22.91
-27.01
-30.81
-34.36
-37.82
-41.46
-45.60
-50.53
-56.35
-62.86
-69.41
-74.84
-77.66
-76.49
-70.46
-59.68
-45.23
-28.90
-12.61
2.06
14.17
23.45
30.08
34.45
36.96
37.98
37.84
36.85
35.34
33.59
31.85
30.27
28.95
27.95
27.33
27.10
27.28
27.86
28.71
29.63
30.36
30.65
30.32
29.31
27.65
25.42
22.72
19.64
16.25
12.67
9.04
5.51
2.16
-1.07
-4.34
-7.83
-11.63
-15.69
-19.86
-23.90
-27.67
-31.14
-34.46
-37.83
-41.53
-45.85
-51.04
-57.20
-64.07
-70.89
-76.38
-79.00
-77.42
-70.98
-59.97
-45.56
-29.46
-13.44
1.12
13.38
22.98
29.97
34.56
37.12
38.10
38.01
37.30
36.30
35.16
33.87
32.40
30.78
29.16
27.81
27.03
27.02
27.81
29.18
30.74
32.05
32.72
32.56
31.61
30.05
28.11
25.98
23.72
21.27
18.53
15.43
11.98
8.29
4.53
0.89
-2.55
-5.79
-8.97
-12.33
-16.06
-20.19
-24.60
-28.98
-33.00
-36.49
-39.55
-42.47
-45.73
-49.78
-54.91
-61.13
-67.96
-74.40
-79.00
-80.15
-76.61
-67.97
-54.91
-39.02
-22.35
-6.77
6.47
16.90
24.68
30.22
33.95
36.14
37.03
36.83
35.81
34.25
32.47
30.77
29.37
28.44
28.07
28.25
28.91
29.90
31.08
32.28
33.36
34.16
34.55
34.39
33.56
32.02
29.74
26.84
23.51
20.00
16.54
13.30
10.32
7.48
4.64
1.64
-1.59
-5.02
-8.62
-12.32
-16.12
-20.01
-23.94
-27.79
-31.45
-34.94
-38.42
-42.31
-47.06
-52.97
-59.79
-66.64
-72.04
-74.30
-72.08
-64.84
-53.14
-38.40
-22.51
-7.26
6.05
16.79
24.81
30.28
33.50
34.77
34.47
33.05
30.98
28.74
26.65
24.94
23.65
22.81
22.40
22.44
22.94
23.88
25.17
26.69
28.23
29.56
30.41
30.52
29.66
27.78
24.98
21.56
17.88
14.25
10.79
7.44
4.02
0.35
-3.63
-7.86
-12.19
-16.44
-20.46
-24.17
-27.56
-30.72
-33.85
-37.26
-41.33
-46.43
-52.75
-60.02
-67.40
-73.49
-76.63
-75.39
-69.11
-58.17
-43.84
-27.93
-12.13
2.30
14.71
24.82
32.54
37.83
40.67
41.29
40.17
38.01
35.57
33.42
31.85
30.91
30.45
30.33
30.49
30.92
31.64
32.61
33.68
34.58
35.07
34.96
34.16
32.69
30.65
28.13
25.23
21.97
18.38
14.55
10.60
6.70
3.00
-0.44
-3.74
-7.17
-11.01
-15.45
-20.44
-25.66
-30.70
-35.25
-39.25
-42.92
-46.74
-51.17
-56.65
-63.35
-71.09
-79.22
-86.58
-91.61
-92.74
-88.81
-79.52
-65.60
-48.57
-30.35
-12.71
3.02
16.14
26.45
34.05
39.21
42.25
43.56
43.55
42.73
41.55
40.36
39.39
38.67
38.21
37.99
38.12
38.77
40.04
41.88
44.03
46.07
47.55
48.13
47.68
46.25
43.98
41.10
37.83
34.33
30.69
26.89
22.88
18.63
14.19
9.75
5.49
1.52
-2.30
-6.24
-10.64
-15.68
-21.23
-26.90
-32.21
-36.82
-40.74
-44.34
-48.25
-53.10
-59.33
-66.96
-75.48
-83.83
-90.50
-93.83
-92.42
-85.57
-73.49
-57.30
-38.77
-19.82
-2.15
13.06
25.26
34.38
40.67
44.60
46.62
47.21
46.72
45.52
43.92
42.23
40.71
39.56
38.86
38.62
38.83
39.46
40.50
41.88
43.47
45.00
46.14
46.60
46.22
44.97
42.93
40.21
36.88
32.99
28.60
23.91
19.17
14.67
10.56
6.85
3.33
-0.27
-4.15
-8.33
-12.68
-16.98
-21.05
-24.78
-28.24
-31.59
-35.11
-39.17
-44.16
-50.33
-57.63
-65.42
-72.46
-77.07
-77.55
-72.76
-62.60
-48.04
-30.89
-13.23
3.13
17.05
28.04
36.03
41.22
43.82
44.09
42.47
39.60
36.26
33.15
30.78
29.33
28.68
28.54
28.65
28.86
29.18
29.72
30.55
31.60
32.65
33.32
33.20
32.03
29.72
26.48
22.69
18.79
15.11
11.73
8.49
5.04
1.01
-3.80
-9.31
-15.19
-20.93
-26.07
-30.38
-33.94
-37.16
-40.64
-44.97
-50.63
-57.73
-65.89
-74.17
-81.10
-84.97
-84.23
-78.04
-66.53
-50.84
-32.87
-14.70
1.92
15.93
27.00
35.27
40.99
44.34
45.45
44.60
42.30
39.31
36.40
34.08
32.50
31.52
30.93
30.63
30.71
31.31
32.47
34.00
35.57
36.77
37.25
36.79
35.25
32.62
29.06
24.89
20.50
16.20
12.12
8.16
4.04
-0.49
-5.58
-11.21
-17.15
-23.11
-28.76
-33.88
-38.44
-42.61
-46.74
-51.32
-56.84
-63.61
-71.61
-80.29
-88.49
-94.58
-96.79
-93.73
-84.83
-70.61
-52.59
-32.85
-13.55
3.64
17.77
28.65
36.53
41.88
45.14
46.66
46.74
45.71
44.03
42.18
40.64
39.66
39.24
39.18
39.19
39.12
39.02
39.15
39.71
40.69
41.79
42.47
42.21
40.69
37.92
34.19
29.92
25.50
21.19
17.08
13.13
9.24
5.23
0.95
-3.69
-8.65
-13.79
-18.89
-23.76
-28.34
-32.76
-37.30
-42.29
-48.08
-54.90
-62.77
-71.33
-79.71
-86.49
-90.00
-88.68
-81.67
-69.21
-52.58
-33.82
-15.09
1.88
16.13
27.38
35.86
41.90
45.84
47.92
48.48
47.94
46.84
45.69
44.83
44.40
44.32
44.47
44.76
45.20
45.88
46.86
48.07
49.28
50.17
50.38
49.67
47.96
45.37
42.14
38.53
34.75
30.92
27.12
23.38
19.78
16.39
13.19
10.04
6.72
2.95
-1.43
-6.35
-11.58
-16.71
-21.38
-25.37
-28.74
-31.76
-34.91
-38.76
-43.81
-50.25
-57.73
-65.20
-71.07
-73.58
-71.35
-63.85
-51.66
-36.22
-19.46
-3.23
11.12
22.83
31.71
37.86
41.56
43.13
43.00
41.62
39.54
37.26
35.18
33.55
32.47
31.95
31.94
32.39
33.26
34.42
35.71
36.87
37.59
37.64
36.85
35.25
32.98
30.29
27.36
24.38
21.39
18.37
15.30
12.18
9.04
5.95
2.94
-0.02
-3.05
-6.30
-9.87
-13.75
-17.77
-21.66
-25.17
-28.16
-30.73
-33.22
-36.12
-39.96
-45.02
-51.20
-57.87
-63.90
-67.90
-68.57
-65.06
-57.28
-45.94
-32.35
-18.08
-4.57
7.15
16.54
23.53
28.35
31.34
32.92
33.44
33.19
32.43
31.35
30.15
28.99
28.01
27.26
26.75
26.43
26.28
26.33
26.60
27.07
27.63
28.02
27.95
27.22
25.79
23.83
21.58
19.25
16.92
14.53
11.96
9.20
6.32
3.51
0.93
-1.36
-3.49
-5.65
-8.04
-10.75
-13.75
-16.93
-20.14
-23.28
-26.29
-29.16
-31.97
-34.89
-38.20
-42.21
-47.13
-52.78
-58.49
-63.02
-64.94
-63.05
-56.84
-46.75
-34.05
-20.44
-7.53
3.56
12.32
18.73
23.06
25.65
26.87
27.04
26.52
25.61
24.53
23.40
22.28
21.21
20.32
19.79
19.75
20.24
21.16
22.30
23.38
24.21
24.62
24.46
23.58
21.94
19.65
16.99
14.39
12.17
10.48
9.18
7.93
6.38
4.36
1.90
-0.73
-3.26
-5.42
-7.16
-8.57
-9.87
-11.35
-13.17
-15.38
-17.83
-20.30
-22.58
-24.62
-26.59
-28.76
-31.46
-34.96
-39.28
-44.12
-48.81
-52.38
-53.73
-52.07
-47.12
-39.28
-29.54
-19.09
-9.05
-0.19
7.10
12.69
16.60
18.94
19.85
19.58
18.43
16.80
15.04
13.44
12.23
11.50
11.24
11.36
11.75
12.36
13.18
14.20
15.34
16.44
17.25
17.57
17.30
16.47
15.24
13.76
12.14
10.45
8.71
6.94
5.13
3.29
1.46
-0.36
-2.10
-3.68
-5.05
-6.24
-7.41
-8.81
-10.63
-12.89
-15.42
-17.86
-19.91
-21.44
-22.62
-23.85
-25.59
-28.18
-31.68
-35.79
-39.90
-43.17
-44.69
-43.68
-39.72
-32.92
-23.95
-13.90
-4.01
4.67
11.44
16.10
18.79
19.81
19.54
18.33
16.49
14.37
12.33
10.69
9.60
9.08
8.95
9.02
9.18
9.44
9.93
10.80
12.03
13.48
14.82
15.69
15.84
15.18
13.85
12.10
10.18
8.31
6.56
4.86
3.10
1.22
-0.78
-2.77
-4.65
-6.38
-8.05
-9.81
-11.83
-14.11
-16.51
-18.80
-20.74
-22.26
-23.46
-24.56
-25.86
-27.67
-30.23
-33.59
-37.58
-41.63
-44.88
-46.30
-45.06
-40.76
-33.69
-24.69
-14.94
-5.57
2.59
9.09
13.88
17.11
19.04
19.92
19.96
19.36
18.25
16.81
15.23
13.75
12.56
11.81
11.54
11.68
12.14
12.81
13.67
14.70
15.80
16.81
17.47
17.54
16.94
15.76
14.21
12.50
10.78
9.03
7.21
5.27
3.27
1.36
-0.35
-1.79
-3.06
-4.37
-5.90
-7.79
-10.00
-12.37
-14.71
-16.88
-18.90
-20.86
-22.95
-25.28
-27.98
-31.07
-34.48
-38.03
-41.26
-43.45
-43.72
-41.37
-36.11
-28.33
-19.01
-9.41
-0.72
6.31
11.44
14.82
16.80
17.68
17.68
17.01
15.85
14.47
13.14
12.08
11.41
11.12
11.17
11.52
12.15
13.06
14.22
15.54
16.82
17.88
18.58
18.89
18.82
18.40
17.63
16.51
15.02
13.23
11.22
9.11
7.01
4.96
2.99
1.10
-0.71
-2.45
-4.17
-5.93
-7.79
-9.74
-11.73
-13.67
-15.46
-17.08
-18.64
-20.35
-22.50
-25.33
-28.88
-32.86
-36.65
-39.35
-40.07
-38.17
-33.55
-26.63
-18.31
-9.62
-1.54
5.30
10.60
14.37
16.78
18.01
18.23
17.57
16.20
14.38
12.43
10.69
9.39
8.63
8.35
8.43
8.73
9.21
9.84
10.59
11.34
11.91
12.10
11.77
10.94
9.74
8.35
6.91
5.51
4.10
2.60
0.93
-1.01
-3.25
-5.77
-8.48
-11.20
-13.70
-15.75
-17.28
-18.37
-19.33
-20.62
-22.69
-25.82
-29.98
-34.73
-39.19
-42.28
-43.00
-40.75
-35.51
-27.89
-18.89
-9.60
-0.93
6.53
12.52
16.95
19.85
21.28
21.39
20.41
18.73
16.78
14.97
13.57
12.67
12.22
12.10
12.21
12.54
13.10
13.84
14.60
15.15
15.21
14.61
13.34
11.54
9.40
7.13
4.85
2.56
0.24
-2.20
-4.85
-7.75
-10.91
-14.19
-17.45
-20.54
-23.43
-26.25
-29.33
-33.03
-37.62
-43.08
-48.96
-54.36
-58.15
-59.23
-56.86
-50.89
-41.89
-30.93
-19.34
-8.33
1.23
8.91
14.68
18.78
21.53
23.21
24.05
24.21
23.88
23.24
22.47
21.70
20.96
20.22
19.45
18.73
18.24
18.16
18.64
19.60
20.76
21.68
21.95
21.34
19.79
17.50
14.73
11.76
8.75
5.75
2.64
-0.70
-4.37
-8.34
-12.44
-16.47
-20.28
-23.88
-27.45
-31.35
-35.95
-41.49
-47.95
-54.82
-61.15
-65.66
-67.09
-64.57
-57.94
-47.84
-35.50
-22.36
-9.75
1.48
10.93
18.59
24.61
29.14
32.31
34.19
34.92
34.75
34.05
33.22
32.55
32.20
32.16
32.33
32.61
33.00
33.55
34.35
35.36
36.40
37.14
37.18
36.19
34.04
30.89
27.12
23.19
19.48
16.17
13.15
10.13
6.82
2.98
-1.38
-6.09
-10.91
-15.54
-19.84
-23.73
-27.31
-30.80
-34.59
-39.12
-44.73
-51.51
-59.03
-66.24
-71.71
-73.93
-71.83
-65.12
-54.41
-40.91
-26.14
-11.48
2.06
13.80
23.39
30.65
35.58
38.36
39.31
38.92
37.71
36.20
34.81
33.86
33.50
33.73
34.42
35.39
36.48
37.63
38.82
40.01
41.12
41.90
42.09
41.49
39.99
37.67
34.68
31.27
27.66
24.04
20.47
16.94
13.33
9.49
5.32
0.85
-3.76
-8.27
-12.47
-16.21
-19.52
-22.55
-25.61
-29.09
-33.41
-38.90
-45.56
-52.93
-59.98
-65.31
-67.43
-65.24
-58.37
-47.35
-33.42
-18.16
-3.10
10.63
22.34
31.70
38.59
43.02
45.11
45.16
43.72
41.47
39.12
37.24
36.18
35.97
36.46
37.34
38.34
39.24
39.97
40.59
41.21
41.86
42.40
42.52
41.84
40.09
37.26
33.59
29.48
25.31
21.30
17.47
13.76
9.99
6.04
1.84
-2.68
-7.47
-12.47
-17.47
-22.28
-26.70
-30.78
-34.74
-39.01
-44.09
-50.34
-57.74
-65.76
-73.33
-78.96
-81.10
-78.64
-71.20
-59.31
-44.27
-27.77
-11.45
3.45
16.16
26.40
34.21
39.81
43.49
45.60
46.48
46.46
45.84
44.89
43.85
42.92
42.27
41.99
42.13
42.64
43.45
44.46
45.48
46.30
46.69
46.51
45.61
44.02
41.81
39.06
35.88
32.37
28.64
24.82
21.05
17.44
14.01
10.65
7.26
3.70
-0.05
-4.00
-8.18
-12.59
-17.25
-22.08
-26.93
-31.64
-36.14
-40.62
-45.45
-51.05
-57.57
-64.61
-71.14
-75.72
-76.84
-73.48
-65.46
-53.51
-39.07
-23.82
-9.30
3.48
14.05
22.33
28.51
32.80
35.44
36.71
36.93
36.50
35.84
35.24
34.92
34.89
35.08
35.39
35.76
36.25
36.94
37.90
39.06
40.21
41.01
41.14
40.43
38.89
36.66
33.97
30.96
27.73
24.28
20.62
16.79
12.93
9.23
5.83
2.81
0.09
-2.54
-5.31
-8.37
-11.74
-15.25
-18.71
-21.95
-24.92
-27.77
-30.73
-34.04
-37.94
-42.53
-47.76
-53.32
-58.60
-62.64
-64.31
-62.66
-57.20
-48.17
-36.54
-23.71
-11.14
0.04
9.22
16.26
21.33
24.69
26.62
27.32
27.03
26.03
24.64
23.20
21.99
21.18
20.85
20.94
21.38
22.06
22.92
23.92
24.96
25.92
26.63
26.91
26.67
25.92
24.74
23.20
21.35
19.10
16.38
13.16
9.64
6.12
2.99
0.44
-1.61
-3.51
-5.72
-8.52
-11.95
-15.73
-19.44
-22.74
-25.52
-27.89
-30.12
-32.54
-35.43
-39.07
-43.53
-48.60
-53.60
-57.50
-59.07
-57.37
-52.05
-43.54
-32.86
-21.28
-9.99
0.15
8.61
15.17
19.77
22.57
23.90
24.17
23.85
23.27
22.60
21.87
21.07
20.25
19.50
19.02
18.93
19.31
20.16
21.35
22.67
23.87
24.68
24.91
24.47
23.42
21.90
20.05
17.97
15.64
13.00
10.00
6.72
3.35
0.16
-2.68
-5.09
-7.25
-9.43
-11.89
-14.78
-18.05
-21.49
-24.86
-27.97
-30.76
-33.35
-35.96
-38.90
-42.45
-46.84
-51.96
-57.36
-62.12
-65.02
-64.91
-61.05
-53.45
-42.83
-30.48
-17.80
-5.99
4.15
12.30
18.45
22.78
25.55
26.99
27.42
27.11
26.33
25.32
24.26
23.24
22.33
21.55
20.99
20.76
21.00
21.76
22.97
24.38
25.67
26.50
26.66
26.10
24.95
23.41
21.70
19.97
18.26
16.50
14.55
12.30
9.73
6.94
4.13
1.44
-1.11
-3.70
-6.60
-10.03
-13.95
-18.11
-22.08
-25.50
-28.29
-30.64
-33.02
-35.98
-39.93
-45.05
-51.06
-57.25
-62.51
-65.60
-65.43
-61.46
-53.82
-43.33
-31.23
-18.87
-7.33
2.68
10.88
17.26
21.95
25.13
26.94
27.57
27.26
26.36
25.27
24.30
23.66
23.36
23.32
23.52
23.98
24.79
25.97
27.36
28.64
29.42
29.50
28.89
27.76
26.38
24.93
23.43
21.81
19.99
17.88
15.50
12.87
10.04
7.05
3.94
0.74
-2.53
-5.88
-9.26
-12.59
-15.76
-18.66
-21.24
-23.57
-25.87
-28.43
-31.63
-35.75
-40.85
-46.61
-52.31
-56.83
-58.96
-57.81
-53.02
-44.93
-34.47
-22.85
-11.22
-0.48
8.77
16.18
21.55
24.84
26.12
25.71
24.05
21.75
19.40
17.48
16.27
15.85
16.10
16.81
17.75
18.77
19.83
20.95
22.12
23.23
24.06
24.31
23.75
22.28
19.99
17.11
13.94
10.76
7.75
4.97
2.35
-0.34
-3.33
-6.84
-10.86
-15.20
-19.47
-23.30
-26.54
-29.27
-31.88
-34.82
-38.52
-43.26
-49.01
-55.44
-61.77
-66.91
-69.60
-68.75
-63.81
-54.94
-43.05
-29.47
-15.65
-2.82
8.22
17.02
23.48
27.70
29.94
30.53
29.91
28.58
27.05
25.71
24.80
24.31
24.07
23.87
23.61
23.38
23.45
24.03
25.16
26.62
27.95
28.66
28.41
27.08
24.79
21.79
18.36
14.72
10.99
7.19
3.24
-0.92
-5.34
-10.00
-14.75
-19.40
-23.76
-27.73
-31.40
-35.03
-39.02
-43.84
-49.83
-56.96
-64.68
-71.89
-77.10
-78.82
-76.01
-68.43
-56.75
-42.31
-26.73
-11.50
2.29
13.98
23.33
30.31
35.11
38.01
39.42
39.82
39.63
39.19
38.63
37.97
37.18
36.29
35.45
34.86
34.72
35.16
36.12
37.39
38.66
39.51
39.55
38.51
36.28
33.02
29.11
25.03
21.19
17.75
14.59
11.31
7.47
2.77
-2.71
-8.58
-14.27
-19.32
-23.58
-27.26
-30.84
-34.82
-39.64
-45.55
-52.58
-60.45
-68.48
-75.50
-80.02
-80.63
-76.41
-67.33
-54.27
-38.78
-22.58
-7.12
6.58
18.00
26.94
33.40
37.56
39.72
40.31
39.84
38.79
37.61
36.57
35.79
35.24
34.86
34.63
34.64
35.04
35.94
37.33
38.99
40.47
41.23
40.81
38.97
35.84
31.86
27.60
23.55
19.88
16.44
12.83
8.68
3.81
-1.61
-7.21
-12.52
-17.25
-21.32
-24.92
-28.41
-32.27
-36.97
-42.83
-49.84
-57.45
-64.54
-69.56
-70.98
-67.68
-59.47
-47.15
-32.27
-16.69
-2.06
10.54
20.63
28.19
33.40
36.44
37.51
36.85
34.86
32.08
29.15
26.68
25.07
24.48
24.80
25.77
27.05
28.31
29.30
29.87
29.94
29.51
28.57
27.14
25.22
22.78
19.77
16.11
11.77
6.75
1.22
-4.54
-10.21
-15.49
-20.33
-24.87
-29.52
-34.75
-40.92
-48.06
-55.70
-62.88
-68.26
-70.49
-68.53
-61.95
-51.08
-36.95
-21.04
-4.97
9.86
22.46
32.34
39.44
43.99
46.37
47.01
46.32
44.75
42.74
40.70
38.97
37.74
37.05
36.79
36.86
37.12
37.50
37.88
38.06
37.82
36.91
35.20
32.65
29.40
25.62
21.49
17.15
12.66
8.08
3.37
-1.46
-6.46
-11.63
-16.91
-22.19
-27.26
-31.97
-36.34
-40.69
-45.58
-51.64
-59.20
-67.93
-76.72
-83.84
-87.39
-85.92
-78.93
-66.94
-51.38
-34.10
-16.84
-0.93
12.81
24.07
32.84
39.34
43.87
46.78
48.42
49.18
49.39
49.33
49.19
49.04
48.87
48.68
48.52
48.50
48.79
49.48
50.52
51.68
52.63
53.05
52.67
51.39
49.21
46.26
42.73
38.93
35.15
31.67
28.62
25.94
23.42
20.74
17.64
14.02
9.99
5.84
1.89
-1.64
-4.73
-7.63
-10.72
-14.32
-18.55
-23.25
-28.09
-32.72
-36.99
-40.95
-44.81
-48.92
-53.59
-59.11
-65.68
-73.22
-81.18
-88.43
-93.37
-94.37
-90.28
-80.89
-67.03
-50.36
-32.79
-16.03
-1.23
11.04
20.69
27.89
32.97
36.33
38.37
39.47
39.95
40.06
39.94
39.69
39.33
38.92
38.58
38.44
38.69
39.45
40.65
42.07
43.33
44.05
43.95
42.98
41.30
39.14
36.73
34.24
31.72
29.20
26.69
24.14
21.52
18.71
15.62
12.24
8.70
5.24
2.11
-0.58
-2.92
-5.18
-7.69
-10.69
-14.21
-18.13
-22.23
-26.32
-30.24
-33.91
-37.34
-40.66
-44.20
-48.38
-53.59
-59.80
-66.35
-71.92
-74.88
-73.84
-68.14
-58.11
-44.98
-30.41
-15.99
-2.96
7.99
16.62
22.96
27.15
29.42
30.09
29.56
28.33
26.89
25.61
24.68
24.09
23.75
23.56
23.57
23.90
24.70
26.00
27.64
29.27
30.48
30.96
30.55
29.26
27.27
24.85
22.28
19.79
17.43
15.15
12.77
10.12
7.18
4.03
0.90
-2.06
-4.80
-7.43
-10.12
-13.04
-16.21
-19.56
-22.96
-26.27
-29.43
-32.45
-35.45
-38.68
-42.49
-47.21
-53.02
-59.61
-66.09
-71.08
-73.13
-71.16
-64.88
-54.80
-42.08
-28.10
-14.21
-1.44
9.49
18.17
24.50
28.61
30.87
31.73
31.72
31.20
30.41
29.44
28.27
26.96
25.59
24.39
23.62
23.55
24.27
25.64
27.29
28.79
29.76
29.98
29.43
28.21
26.47
24.36
22.05
19.67
17.37
15.16
12.97
10.67
8.18
5.53
2.83
0.21
-2.26
-4.65
-7.13
-9.88
-12.99
-16.44
-20.07
-23.66
-27.04
-30.14
-33.02
-35.88
-39.03
-42.82
-47.52
-53.21
-59.60
-65.99
-71.25
-74.05
-73.21
-68.12
-58.92
-46.61
-32.69
-18.77
-6.15
4.43
12.79
19.09
23.64
26.73
28.60
29.44
29.49
29.04
28.35
27.64
27.02
26.50
26.07
25.77
25.73
26.10
26.98
28.32
29.84
31.12
31.73
31.38
30.07
28.04
25.68
23.39
21.39
19.63
17.89
15.87
13.41
10.52
7.46
4.52
1.93
-0.29
-2.33
-4.54
-7.20
-10.45
-14.20
-18.19
-22.09
-25.63
-28.70
-31.39
-33.94
-36.70
-40.06
-44.37
-49.71
-55.82
-61.98
-67.07
-69.73
-68.80
-63.67
-54.57
-42.56
-29.16
-15.95
-4.09
5.79
13.62
19.55
23.82
26.56
27.87
27.95
27.09
25.74
24.36
23.29
22.65
22.42
22.48
22.75
23.25
24.03
25.15
26.54
27.98
29.15
29.69
29.35
28.11
26.14
23.71
21.10
18.42
15.68
12.79
9.71
6.55
3.47
0.61
-2.01
-4.58
-7.36
-10.55
-14.16
-17.98
-21.68
-25.00
-27.84
-30.34
-32.81
-35.65
-39.29
-44.02
-49.77
-56.06
-61.89
-65.95
-66.94
-64.00
-56.96
-46.48
-33.77
-20.28
-7.29
4.31
14.01
21.60
27.03
30.36
31.78
31.61
30.33
28.43
26.35
24.41
22.77
21.51
20.71
20.44
20.73
21.54
22.72
24.04
25.27
26.21
26.74
26.76
26.16
24.83
22.73
19.97
16.83
13.66
10.74
8.13
5.68
3.05
-0.08
-3.83
-8.11
-12.63
-17.06
-21.15
-24.84
-28.23
-31.53
-35.04
-39.04
-43.76
-49.39
-55.91
-62.99
-69.88
-75.45
-78.36
-77.46
-72.13
-62.55
-49.66
-34.91
-19.88
-5.88
6.24
16.12
23.72
29.21
32.81
34.76
35.37
34.97
34.00
32.84
31.79
31.01
30.50
30.19
30.03
30.09
30.49
31.33
32.54
33.90
35.10
35.83
35.93
35.33
34.05
32.09
29.42
26.09
22.27
18.27
14.42
10.93
7.78
4.70
1.31
-2.67
-7.30
-12.43
-17.77
-23.00
-27.87
-32.25
-36.15
-39.75
-43.41
-47.59
-52.85
-59.45
-67.13
-74.92
-81.24
-84.29
-82.62
-75.62
-63.75
-48.45
-31.60
-15.08
-0.24
12.17
21.96
29.25
34.29
37.38
38.82
38.98
38.25
37.03
35.65
34.38
33.37
32.73
32.51
32.74
33.38
34.36
35.56
36.88
38.18
39.26
39.86
39.64
38.40
36.07
32.87
29.19
25.50
22.13
19.18
16.50
13.74
10.55
6.67
2.05
-3.15
-8.60
-13.94
-18.87
-23.23
-27.07
-30.59
-34.09
-37.93
-42.49
-48.05
-54.62
-61.73
-68.32
-72.84
-73.68
-69.64
-60.47
-47.01
-30.94
-14.30
1.13
14.23
24.55
32.19
37.42
40.50
41.66
41.17
39.45
37.10
34.76
32.96
31.91
31.52
31.51
31.60
31.73
31.99
32.61
33.66
34.99
36.19
36.79
36.39
34.86
32.37
29.26
25.85
22.40
18.96
15.48
11.82
7.87
3.49
-1.34
-6.57
-12.06
-17.57
-22.82
-27.57
-31.76
-35.51
-39.22
-43.41
-48.66
-55.33
-63.32
-71.94
-79.85
-85.29
-86.57
-82.52
-73.03
-59.03
-42.24
-24.64
-7.93
6.79
19.08
28.85
36.19
41.21
44.01
44.86
44.25
42.80
41.17
39.81
38.92
38.47
38.28
38.22
38.24
38.45
38.95
39.83
41.00
42.21
43.11
43.30
42.49
40.56
37.59
33.83
29.69
25.54
21.67
18.09
14.56
10.67
6.06
0.58
-5.60
-12.02
-18.14
-23.56
-28.18
-32.22
-36.17
-40.59
-45.98
-52.62
-60.38
-68.65
-76.27
-81.70
-83.39
-80.20
-71.83
-58.94
-43.01
-25.89
-9.32
5.47
17.85
27.72
35.20
40.51
43.86
45.46
45.65
44.87
43.64
42.40
41.45
40.93
40.76
40.83
41.01
41.21
41.41
41.63
41.92
42.30
42.68
42.86
42.50
41.28
38.97
35.59
31.40
26.84
22.31
18.08
14.20
10.54
6.90
3.10
-0.96
-5.25
-9.70
-14.18
-18.53
-22.62
-26.41
-30.00
-33.66
-37.83
-42.92
-49.21
-56.59
-64.39
-71.42
-76.14
-77.06
-73.25
-64.62
-52.02
-36.97
-21.26
-6.41
6.56
17.24
25.55
31.62
35.61
37.70
38.15
37.34
35.75
33.88
32.13
30.76
29.89
29.51
29.55
29.92
30.50
31.20
31.89
32.50
32.87
32.86
32.27
30.95
28.83
25.99
22.65
19.12
15.70
12.60
9.81
7.22
4.52
1.48
-2.08
-6.17
-10.56
-15.00
-19.16
-22.87
-26.13
-29.08
-32.04
-35.40
-39.58
-44.86
-51.15
-57.84
-63.80
-67.56
-67.78
-63.67
-55.27
-43.39
-29.36
-14.71
-0.74
11.61
21.72
29.34
34.43
37.09
37.66
36.59
34.51
32.06
29.82
28.16
27.22
26.87
26.88
27.07
27.38
27.90
28.71
29.78
30.88
31.69
31.88
31.22
29.62
27.14
23.96
20.30
16.44
12.62
9.00
5.63
2.42
-0.78
-4.13
-7.70
-11.50
-15.48
-19.57
-23.69
-27.75
-31.66
-35.34
-38.86
-42.47
-46.62
-51.74
-58.04
-65.19
-72.23
-77.68
-79.96
-77.86
-70.99
-59.89
-45.85
-30.58
-15.67
-2.28
8.96
17.93
24.80
29.86
33.39
35.61
36.70
36.84
36.24
35.18
33.94
32.79
31.91
31.43
31.35
31.61
32.12
32.77
33.48
34.14
34.61
34.74
34.40
33.46
31.83
29.55
26.69
23.44
20.02
16.59
13.29
10.09
6.88
3.45
-0.36
-4.66
-9.39
-14.33
-19.21
-23.71
-27.65
-31.00
-33.96
-36.91
-40.34
-44.71
-50.32
-57.00
-64.13
-70.56
-74.84
-75.62
-72.01
-63.87
-51.95
-37.66
-22.66
-8.46
3.93
14.00
21.73
27.33
31.06
33.18
33.93
33.59
32.49
31.06
29.68
28.67
28.18
28.18
28.62
29.39
30.45
31.75
33.22
34.66
35.78
36.28
35.98
34.88
33.07
30.74
28.02
24.98
21.68
18.18
14.54
10.84
7.17
3.56
0.01
-3.48
-6.96
-10.46
-13.99
-17.54
-21.02
-24.31
-27.36
-30.19
-33.01
-36.17
-40.05
-44.91
-50.67
-56.78
-62.16
-65.48
-65.43
-61.24
-52.92
-41.31
-27.84
-14.07
-1.30
9.61
18.30
24.70
28.89
31.05
31.45
30.44
28.48
26.08
23.76
21.90
20.74
20.33
20.57
21.22
22.08
22.98
23.88
24.77
25.61
26.30
26.63
26.34
25.22
23.24
20.53
17.32
13.94
10.65
7.61
4.76
1.96
-1.04
-4.41
-8.18
-12.27
-16.46
-20.53
-24.31
-27.75
-30.92
-34.06
-37.46
-41.45
-46.29
-52.11
-58.72
-65.60
-71.80
-76.09
-77.22
-74.24
-66.81
-55.38
-41.12
-25.67
-10.67
2.61
13.47
21.77
27.76
31.78
34.18
35.25
35.23
34.39
33.05
31.55
30.19
29.21
28.74
28.81
29.36
30.28
31.43
32.68
33.87
34.84
35.43
35.51
34.96
33.77
31.96
29.65
26.96
24.01
20.89
17.63
14.28
10.89
7.50
4.15
0.80
-2.65
-6.34
-10.34
-14.65
-19.11
-23.56
-27.82
-31.84
-35.67
-39.47
-43.49
-48.02
-53.38
-59.78
-67.08
-74.63
-81.14
-84.95
-84.53
-79.02
-68.56
-54.35
-38.16
-21.78
-6.58
6.70
17.79
26.67
33.33
37.79
40.21
40.94
40.59
39.73
38.85
38.10
37.49
36.95
36.49
36.31
36.66
37.68
39.28
41.11
42.68
43.52
43.37
42.20
40.26
37.87
35.39
32.99
30.71
28.39
25.80
22.76
19.22
15.31
11.30
7.42
3.81
0.44
-2.87
-6.32
-10.05
-14.07
-18.32
-22.63
-26.83
-30.78
-34.43
-37.85
-41.27
-45.07
-49.69
-55.43
-62.12
-69.02
-74.75
-77.66
-76.28
-69.89
-58.77
-44.18
-27.96
-11.94
2.43
14.38
23.69
30.49
35.01
37.50
38.24
37.54
35.86
33.70
31.51
29.59
28.14
27.18
26.75
26.85
27.48
28.57
29.97
31.40
32.56
33.18
33.11
32.34
31.00
29.19
27.05
24.62
21.97
19.14
16.18
13.14
10.05
6.91
3.70
0.42
-2.92
-6.35
-9.88
-13.50
-17.18
-20.76
-24.12
-27.21
-30.11
-33.09
-36.48
-40.68
-45.93
-52.17
-58.87
-64.96
-69.01
-69.52
-65.46
-56.68
-43.98
-28.97
-13.51
0.80
12.98
22.65
29.85
34.73
37.48
38.29
37.48
35.52
33.01
30.50
28.38
26.84
25.85
25.32
25.14
25.28
25.74
26.55
27.63
28.77
29.69
30.10
29.78
28.71
26.95
24.66
21.96
18.94
15.62
12.05
8.35
4.70
1.26
-1.96
-5.13
-8.51
-12.30
-16.53
-21.01
-25.43
-29.54
-33.28
-36.78
-40.32
-44.26
-48.90
-54.48
-61.07
-68.42
-75.81
-81.99
-85.38
-84.51
-78.50
-67.45
-52.50
-35.47
-18.32
-2.62
10.73
21.40
29.49
35.24
38.86
40.59
40.78
39.92
38.56
37.18
36.02
35.11
34.34
33.66
33.15
33.01
33.47
34.55
36.06
37.61
38.77
39.20
38.81
37.65
35.89
33.73
31.26
28.53
25.50
22.14
18.47
14.58
10.68
6.93
3.45
0.12
-3.26
-6.99
-11.23
-15.96
-20.90
-25.75
-30.22
-34.21
-37.86
-41.44
-45.39
-50.14
-56.03
-63.13
-70.95
-78.41
-83.87
-85.56
-82.14
-73.18
-59.45
-42.63
-24.85
-8.03
6.51
18.22
27.10
33.41
37.50
39.67
40.27
39.68
38.35
36.76
35.25
34.01
33.10
32.50
32.24
32.34
32.87
33.80
35.00
36.22
37.15
37.58
37.37
36.53
35.10
33.13
30.67
27.74
24.44
20.92
17.40
14.04
10.94
8.07
5.23
2.19
-1.26
-5.20
-9.52
-13.97
-18.24
-22.10
-25.51
-28.69
-32.02
-35.99
-40.98
-47.14
-54.22
-61.50
-67.82
-71.78
-72.06
-67.82
-59.00
-46.39
-31.44
-15.84
-1.10
11.74
22.15
29.94
35.15
37.89
38.35
36.95
34.33
31.25
28.45
26.35
25.06
24.38
24.01
23.74
23.56
23.62
24.12
25.10
26.45
27.81
28.74
28.77
27.62
25.27
21.97
18.22
14.48
11.11
8.12
5.20
1.91
-2.15
-7.09
-12.66
-18.35
-23.62
-28.11
-31.77
-34.93
-38.17
-42.13
-47.31
-53.81
-61.21
-68.51
-74.25
-76.87
-75.08
-68.31
-56.87
-41.95
-25.28
-8.66
6.43
19.11
29.05
36.34
41.17
43.78
44.35
43.18
40.72
37.59
34.42
31.74
29.78
28.52
27.80
27.44
27.37
27.61
28.20
29.11
30.17
31.05
31.35
30.70
28.91
26.05
22.46
18.62
14.91
11.46
8.06
4.31
-0.19
-5.58
-11.62
-17.88
-23.82
-29.11
-33.69
-37.80
-41.87
-46.43
-52.01
-58.95
-67.26
-76.31
-84.84
-91.07
-93.15
-89.72
-80.41
-66.06
-48.41
-29.59
-11.50
4.57
18.03
28.76
36.89
42.61
46.13
47.74
47.88
47.04
45.73
44.33
43.08
42.07
41.31
40.76
40.43
40.33
40.50
40.94
41.62
42.35
42.84
42.72
41.68
39.57
36.47
32.63
28.45
24.24
20.24
16.47
12.81
8.99
4.74
-0.15
-5.70
-11.75
-17.97
-23.91
-29.25
-33.86
-37.95
-42.00
-46.66
-52.53
-59.96
-68.77
-78.13
-86.56
-92.20
-93.22
-88.42
-77.63
-61.84
-42.93
-23.11
-4.36
12.02
25.45
35.93
43.69
49.00
52.12
53.36
53.21
52.25
51.02
49.92
49.03
48.25
47.43
46.57
45.82
45.48
45.76
46.63
47.86
48.98
49.56
49.30
48.07
46.00
43.29
40.17
36.76
33.09
29.06
24.62
19.81
14.85
10.04
5.64
1.71
-1.91
-5.53
-9.45
-13.75
-18.34
-23.00
-27.53
-31.82
-35.87
-39.73
-43.59
-47.71
-52.56
-58.53
-65.63
-73.18
-79.70
-83.22
-81.96
-74.93
-62.43
-45.90
-27.50
-9.38
6.80
20.15
30.40
37.69
42.27
44.43
44.45
42.71
39.74
36.20
32.79
30.10
28.47
27.95
28.34
29.32
30.59
31.95
33.28
34.51
35.52
36.13
36.17
35.51
34.07
31.91
29.13
25.83
22.13
18.15
14.06
10.01
6.16
2.54
-0.96
-4.57
-8.54
-13.01
-17.92
-23.01
-27.98
-32.55
-36.67
-40.47
-44.28
-48.53
-53.66
-59.96
-67.33
-75.05
-81.76
-85.67
-85.04
-78.86
-67.21
-51.30
-33.12
-14.77
2.08
16.43
27.90
36.50
42.37
45.66
46.65
45.77
43.63
40.98
38.45
36.47
35.19
34.49
34.14
34.01
34.07
34.42
35.17
36.23
37.34
38.09
38.13
37.31
35.69
33.50
30.90
27.91
24.44
20.42
15.89
11.11
6.42
2.09
-1.80
-5.38
-8.95
-12.77
-17.01
-21.61
-26.41
-31.18
-35.74
-40.06
-44.24
-48.56
-53.36
-59.03
-65.81
-73.65
-81.99
-89.65
-94.99
-96.25
-92.13
-82.22
-67.22
-48.80
-29.10
-10.14
6.59
20.30
30.84
38.40
43.32
46.02
46.95
46.60
45.51
44.16
42.85
41.73
40.78
39.87
39.00
38.25
37.85
38.01
38.80
40.08
41.48
42.52
42.80
42.08
40.40
37.95
35.02
31.83
28.51
25.10
21.57
17.87
14.03
10.04
5.91
1.63
-2.84
-7.51
-12.34
-17.30
-22.26
-27.13
-31.81
-36.28
-40.58
-44.93
-49.66
-55.19
-61.85
-69.67
-78.14
-86.10
-91.86
-93.62
-90.01
-80.56
-65.96
-47.88
-28.45
-9.72
6.81
20.39
30.87
38.47
43.53
46.40
47.42
46.99
45.53
43.51
41.34
39.29
37.56
36.23
35.42
35.22
35.74
37.00
38.88
41.06
43.12
44.56
45.01
44.27
42.39
39.59
36.17
32.42
28.52
24.58
20.60
16.62
12.66
8.78
5.00
1.29
-2.55
-6.69
-11.29
-16.33
-21.56
-26.55
-30.92
-34.48
-37.38
-40.13
-43.42
-47.90
-53.95
-61.39
-69.42
-76.63
-81.26
-81.64
-76.64
-66.15
-51.11
-33.36
-15.10
1.73
15.82
26.66
34.27
38.94
41.01
40.81
38.79
35.56
31.93
28.65
26.27
24.94
24.52
24.69
25.22
25.98
26.95
28.13
29.38
30.55
31.41
31.77
31.38
30.05
27.65
24.24
20.12
15.71
11.45
7.55
3.95
0.36
-3.54
-7.96
-12.92
-18.19
-23.52
-28.60
-33.22
-37.35
-41.15
-45.04
-49.59
-55.35
-62.56
-70.91
-79.40
-86.46
-90.29
-89.38
-82.94
-71.16
-55.20
-36.84
-18.02
-0.45
14.75
27.02
36.25
42.60
46.35
47.88
47.67
46.24
44.17
41.90
39.74
37.82
36.17
34.86
34.02
33.85
34.46
35.79
37.54
39.22
40.35
40.59
39.89
38.41
36.37
33.91
31.03
27.63
23.67
19.21
14.53
9.92
5.65
1.74
-1.97
-5.79
-10.02
-14.82
-20.13
-25.72
-31.30
-36.61
-41.50
-46.04
-50.48
-55.25
-60.88
-67.75
-75.87
-84.58
-92.54
-97.90
-98.78
-93.87
-82.90
-66.77
-47.34
-26.85
-7.41
9.51
23.19
33.52
40.81
45.55
48.23
49.31
49.21
48.31
47.00
45.58
44.29
43.24
42.46
41.96
41.81
42.11
42.96
44.34
46.05
47.63
48.59
48.47
47.09
44.55
41.22
37.47
33.61
29.75
25.80
21.67
17.32
12.89
8.58
4.58
0.82
-2.91
-6.99
-11.68
-16.99
-22.63
-28.14
-33.09
-37.31
-40.92
-44.31
-47.94
-52.29
-57.73
-64.41
-72.17
-80.29
-87.45
-91.85
-91.68
-85.74
-73.93
-57.35
-38.01
-18.20
0.17
15.86
28.38
37.77
44.28
48.22
49.87
49.59
47.83
45.15
42.15
39.38
37.24
35.90
35.33
35.35
35.74
36.29
36.87
37.46
37.99
38.44
38.65
38.45
37.59
35.90
33.31
29.92
26.00
21.88
17.83
13.97
10.31
6.68
2.93
-1.04
-5.30
-9.81
-14.50
-19.22
-23.78
-27.96
-31.61
-34.71
-37.51
-40.49
-44.31
-49.53
-56.34
-64.28
-72.09
-78.01
-80.13
-77.01
-68.19
-54.38
-37.22
-18.80
-1.11
14.39
26.88
36.11
42.22
45.50
46.40
45.44
43.20
40.27
37.22
34.52
32.45
31.16
30.61
30.64
31.04
31.67
32.47
33.42
34.53
35.62
36.41
36.50
35.60
33.62
30.69
27.14
23.29
19.36
15.46
11.59
7.76
3.95
0.15
-3.72
-7.80
-12.26
-17.14
-22.40
-27.82
-33.11
-38.02
-42.44
-46.44
-50.28
-54.42
-59.38
-65.63
-73.25
-81.75
-89.89
-95.85
-97.66
-93.83
-83.89
-68.60
-49.73
-29.52
-10.08
7.07
21.11
31.83
39.36
44.03
46.27
46.64
45.79
44.36
42.86
41.56
40.52
39.65
38.85
38.15
37.70
37.71
38.27
39.35
40.64
41.77
42.33
42.05
40.86
38.85
36.22
33.20
29.98
26.65
23.28
19.86
16.39
12.91
9.45
6.05
2.69
-0.74
-4.44
-8.58
-13.24
-18.29
-23.45
-28.38
-32.86
-36.90
-40.79
-44.98
-49.99
-56.22
-63.79
-72.31
-80.75
-87.52
-90.72
-88.69
-80.60
-66.84
-48.99
-29.35
-10.24
6.58
20.26
30.71
38.27
43.35
46.26
47.23
46.56
44.71
42.24
39.75
37.70
36.35
35.71
35.61
35.89
36.37
37.02
37.90
39.02
40.31
41.55
42.36
42.43
41.55
39.71
37.05
33.78
30.11
26.23
22.25
18.32
14.51
10.80
7.06
3.13
-1.13
-5.71
-10.41
-14.98
-19.22
-23.05
-26.55
-29.93
-33.45
-37.41
-42.09
-47.63
-53.79
-59.85
-64.48
-66.08
-63.22
-55.22
-42.49
-26.47
-9.19
7.34
21.67
33.09
41.59
47.53
51.30
53.19
53.37
52.04
49.53
46.32
42.99
40.10
38.04
36.98
36.85
37.40
38.37
39.47
40.48
41.25
41.66
41.64
41.18
40.40
39.38
38.14
36.43
33.72
29.37
22.86
14.13
3.70
-7.41
-18.03
-27.26
-35.05
-42.35
-51.00
-63.07
-79.86
-100.89
-123.60
-143.59
-155.82
-156.25
-143.09
-117.43
-82.85
-44.43
-7.54
23.18
44.64
55.78
57.79
53.77
47.97
44.42
45.52
51.34
59.55
66.64
69.32
65.84
56.49
43.13
28.26
14.23
2.85
-4.44
-6.40
-2.26
7.76
22.00
37.23
49.48
55.38
53.41
44.40
31.01
16.50
3.34
-7.50
-16.49
-24.73
-33.17
-42.08
-51.20
-60.13
-68.81
-77.58
-86.83
-96.42
-105.31
-111.68
-113.56
-109.67
-100.00
-85.96
-69.73
-53.47
-38.67
-25.95
-15.26
-6.40
0.60
5.48
7.89
7.74
5.46
1.83
-2.18
-5.75
-8.50
-10.51
-12.10
-13.66
-15.43
-17.36
-19.26
-20.94
-22.40
-23.96
-26.18
-29.71
-35.04
-42.34
-51.47
-62.02
-73.58
-85.85
-98.65
-111.87
-125.39
-139.04
-152.72
-166.48
-180.62
-195.52
-211.43
-228.13
-244.81
-260.18
-272.88
-281.67
-285.60
-283.89
-275.69
-260.13
-236.52
-204.85
-166.02
-121.79
-74.12
-24.51
26.37
78.34
131.01
182.96
231.77
274.61
309.44
335.76
354.75
368.48
378.91
387.12
393.26
397.04
398.34
397.31
393.97
387.71
377.14
360.69
337.63
308.81
276.74
244.71
215.61
190.97
170.76
153.90
139.17
125.76
113.33
101.58
89.90
77.33
62.91
46.28
27.89
9.00
-8.73
-23.83
-35.39
-43.14
-47.34
-48.52
-47.17
-43.69
-38.51
-32.23
-25.73
-20.13
-16.50
-15.52
-17.18
-20.73
-24.92
-28.51
-30.85
-32.11
-33.20
-35.28
-39.18
-45.09
-52.45
-60.42
-68.12
-74.92
-80.34
-83.91
-85.10
-83.52
-79.21
-72.94
-66.04
-60.12
-56.37
-55.21
-56.21
-58.49
-61.09
-63.36
-64.94
-65.60
-65.08
-62.97
-58.74
-51.94
-42.24
-29.47
-13.52
5.59
27.58
51.62
76.28
99.67
120.03
136.27
148.28
156.91
163.26
168.03
170.85
170.22
163.87
149.41
124.80
88.73
41.09
-16.20
-78.38
-137.70
-184.86
-211.76
-214.70
-196.32
-164.96
-131.55
-105.58
-92.21
-91.53
-99.93
-112.33
-124.13
-131.99
-134.14
-130.47
-122.62
-113.92
-108.44
-109.47
-117.98
-132.07
-147.59
-159.85
-165.41
-163.13
-154.01
-140.34
-124.59
-108.61
-93.46
-79.63
-67.35
-56.94
-48.84
-43.17
-39.41
-36.24
-31.93
-24.99
-14.93
-2.43
11.04
24.12
36.24
47.82
59.80
72.74
86.27
99.04
109.35
115.96
118.58
117.78
114.57
109.76
103.82
96.89
89.03
80.33
70.91
60.84
50.23
39.27
28.39
18.16
8.99
0.93
-6.45
-13.80
-21.62
-29.86
-37.77
-44.10
-47.41
-46.57
-41.09
-31.23
-18.01
-2.92
12.45
26.77
39.13
49.09
56.49
61.22
63.22
62.49
59.30
54.32
48.47
42.67
37.57
33.41
30.21
27.99
26.84
26.85
27.79
28.99
29.28
27.29
21.69
11.44
-4.00
-24.54
-49.55
-77.75
-107.45
-136.77
-163.82
-186.63
-203.10
-211.19
-209.60
-198.71
-181.15
-161.43
-144.35
-133.01
-127.45
-124.76
-120.75
-112.17
-98.39
-81.21
-63.53
-47.33
-32.41
-16.45
3.89
31.66
69.00
116.76
174.28
238.76
304.70
364.02
407.51
427.32
419.71
386.50
334.68
274.13
214.54
162.76
121.76
91.00
67.90
49.33
32.72
16.46
-0.16
-17.22
-34.59
-52.25
-70.49
-89.79
-110.57
-132.89
-156.25
-179.55
-201.23
-219.43
-232.38
-238.93
-238.81
-232.54
-220.85
-203.99
-181.34
-151.78
-114.70
-71.11
-24.08
21.76
61.63
92.14
112.16
122.75
126.11
124.56
119.87
113.21
105.53
97.56
89.62
81.28
71.40
58.69
42.51
23.61
4.10
-13.22
-25.95
-32.91
-34.49
-32.30
-28.51
-25.20
-23.89
-25.42
-29.93
-36.91
-45.27
-53.38
-59.55
-62.50
-61.90
-58.54
-54.10
-50.36
-48.60
-49.00
-50.64
-51.92
-51.09
-46.90
-38.84
-27.23
-12.94
3.00
19.87
37.52
56.25
76.36
97.58
118.56
136.97
150.26
156.71
156.41
151.35
144.66
139.23
136.49
135.82
135.03
131.41
122.93
108.80
89.58
66.62
41.63
16.21
-8.34
-31.17
-51.90
-70.80
-88.73
-106.97
-126.86
-149.39
-174.81
-202.48
-230.85
-257.63
-280.05
-295.34
-301.38
-297.29
-283.85
-263.24
-238.31
-211.63
-184.65
-157.52
-129.31
-98.74
-64.85
-27.55
12.33
53.02
92.33
128.07
158.57
183.09
201.95
216.27
227.32
235.80
241.50
243.60
241.28
234.37
223.51
209.87
194.60
178.52
162.21
146.27
131.54
118.99
109.27
102.29
96.99
91.57
84.17
73.61
59.84
44.05
28.34
15.25
7.22
6.11
12.84
27.20
47.88
72.77
99.39
125.19
147.85
165.32
176.04
179.24
175.26
165.63
152.57
138.08
122.70
105.01
82.08
51.07
11.18
-35.09
-82.33
-124.22
-156.01
-176.16
-186.34
-189.78
-189.04
-184.55
-174.43
-155.63
-125.45
-82.77
-28.53
34.38
101.53
167.29
225.59
270.74
298.47
306.87
296.54
270.20
231.72
185.23
134.41
82.18
30.70
-18.39
-63.59
-103.50
-137.12
-164.47
-187.18
-208.55
-232.62
-262.59
-299.25
-340.30
-381.12
-416.23
-441.10
-453.20
-452.09
-438.86
-415.37
-383.81
-346.42
-305.28
-261.97
-217.40
-171.94
-125.80
-79.60
-34.52
7.89
46.18
79.39
107.01
128.74
144.27
153.41
156.43
154.36
148.85
141.68
134.07
126.22
117.28
105.89
90.77
71.34
47.97
22.05
-4.41
-29.21
-50.69
-68.23
-82.44
-94.71
-106.61
-119.12
-132.18
-144.59
-154.24
-158.62
-155.44
-143.45
-123.08
-96.69
-68.25
-42.04
-21.26
-6.82
2.86
10.88
20.32
32.81
48.02
64.15
79.06
91.27
100.28
106.18
108.94
107.97
102.15
90.71
74.07
54.41
35.38
21.04
14.63
17.35
27.87
42.70
57.28
67.80
72.90
74.85
79.08
92.26
119.60
162.58
218.16
280.01
340.45
392.56
431.27
453.36
456.98
441.32
407.09
357.28
297.35
234.12
173.36
117.50
64.77
10.89
-47.31
-108.43
-165.82
-210.07
-233.95
-236.77
-225.69
-213.01
-210.83
-226.03
-257.98
-299.93
-342.48
-377.17
-398.65
-404.81
-396.24
-374.99
-344.25
-308.23
-272.15
-241.86
-223.09
-220.15
-234.38
-262.98
-298.72
-331.55
-351.40
-351.39
-329.83
-290.37
-240.12
-186.61
-135.32
-88.68
-46.95
-9.92
21.85
46.75
62.93
69.20
66.06
55.73
41.79
28.81
21.90
26.18
45.83
82.90
135.99
199.86
266.29
326.17
372.03
399.91
409.86
404.97
389.85
369.19
346.95
326.00
307.93
292.87
279.34
264.48
245.07
219.18
187.42
153.29
121.95
97.99
83.46
76.74
73.34
67.70
55.56
35.32
8.51
-20.96
-47.97
-67.50
-75.82
-71.25
-54.63
-29.14
0.21
27.75
48.41
58.89
58.41
48.64
33.11
16.04
1.27
-8.51
-12.15
-9.80
-2.48
8.40
21.33
34.89
47.85
59.26
68.60
75.66
80.36
82.39
80.94
74.71
62.29
42.68
15.94
-16.39
-51.37
-85.18
-113.94
-134.67
-145.98
-148.38
-144.09
-136.32
-128.37
-122.85
-121.10
-123.05
-127.51
-132.49
-135.75
-135.41
-130.39
-120.71
-107.47
-92.57
-78.22
-66.50
-58.87
-55.90
-57.02
-60.64
-64.40
-65.81
-62.92
-54.81
-41.80
-24.97
-5.53
15.90
39.40
65.47
94.21
124.74
155.02
182.23
203.61
217.29
222.65
220.13
210.75
195.55
175.37
150.89
122.98
92.82
61.74
30.89
0.99
-27.50
-53.93
-77.05
-95.07
-106.46
-110.95
-110.12
-106.99
-104.63
-104.56
-105.95
-105.99
-101.55
-90.78
-74.13
-54.01
-33.58
-15.35
-0.52
10.83
19.17
24.88
28.09
28.80
27.22
23.91
19.69
15.50
12.20
10.47
10.68
12.80
16.31
20.23
23.37
24.66
23.47
19.74
13.89
6.50
-1.88
-10.89
-20.23
-29.59
-38.63
-47.04
-54.83
-62.35
-70.17
-78.80
-88.15
-97.37
-104.89
-108.87
-107.80
-101.00
-88.84
-72.55
-53.75
-33.97
-14.32
4.47
21.79
36.99
49.31
58.22
63.88
67.26
69.86
72.98
77.08
81.53
84.93
85.65
82.27
73.74
59.29
38.58
12.13
-18.35
-50.05
-79.85
-105.56
-126.75
-144.55
-160.51
-175.33
-188.25
-197.70
-202.75
-204.27
-205.11
-208.85
-218.04
-232.82
-250.63
-266.97
-276.83
-276.11
-262.47
-235.72
-197.67
-151.74
-102.25
-53.71
-10.10
25.69
52.03
68.48
75.54
74.48
67.19
56.20
44.46
34.92
30.13
31.90
41.42
59.47
86.58
122.55
165.41
210.46
250.36
276.79
283.22
267.54
233.05
187.28
139.21
96.42
63.78
43.74
37.48
45.31
65.74
93.97
121.42
137.53
133.68
107.23
63.38
13.63
-28.77
-53.78
-57.68
-43.04
-16.04
16.96
51.67
85.95
118.50
147.32
169.47
182.09
184.02
176.95
165.12
153.57
146.08
143.82
145.25
147.31
146.83
141.73
131.27
115.88
96.58
74.57
50.95
26.58
1.91
-22.98
-48.20
-73.69
-98.99
-123.15
-145.04
-163.70
-178.54
-189.38
-196.23
-199.15
-198.20
-193.65
-185.95
-175.65
-163.12
-148.21
-130.18
-107.97
-80.96
-49.66
-16.17
16.15
43.63
63.65
75.53
80.62
81.30
79.49
75.52
68.02
54.78
34.18
6.48
-25.97
-59.26
-89.24
-112.72
-128.20
-135.91
-137.31
-134.42
-129.11
-122.86
-116.54
-110.47
-104.62
-98.79
-92.94
-87.28
-82.29
-78.47
-76.09
-74.97
-74.60
-74.36
-73.80
-72.81
-71.49
-69.95
-68.12
-65.68
-62.21
-57.30
-50.75
-42.48
-32.46
-20.61
-6.80
9.14
27.21
47.22
68.72
90.92
112.71
132.64
149.16
160.98
167.59
169.62
168.67
166.71
165.02
163.40
159.92
151.56
135.58
110.89
78.84
43.05
8.31
-20.92
-41.79
-53.63
-57.87
-57.14
-54.33
-51.80
-50.98
-52.47
-56.28
-62.06
-69.24
-77.03
-84.37
-90.18
-93.59
-94.16
-91.89
-86.91
-79.29
-68.70
-54.60
-36.50
-14.40
10.97
38.10
65.00
89.58
110.16
125.72
136.05
141.66
143.48
142.54
139.60
134.95
128.44
119.73
108.48
94.63
78.53
60.96
43.02
26.00
11.11
-0.81
-9.42
-14.95
-18.10
-19.81
-21.00
-22.42
-24.55
-27.53
-31.25
-35.43
-39.66
-43.57
-46.92
-49.72
-52.32
-55.34
-59.40
-64.72
-70.75
-75.89
-77.66
-73.30
-60.61
-38.84
-8.99
26.27
63.49
99.28
131.09
157.54
178.32
193.78
204.53
211.15
214.08
213.70
210.34
204.44
196.46
186.86
175.92
163.74
150.28
135.54
119.69
103.13
86.27
69.34
52.20
34.43
15.64
-4.19
-24.60
-44.76
-63.89
-81.69
-98.40
-114.52
-130.31
-145.48
-159.23
-170.66
-179.22
-185.01
-188.57
-190.56
-191.29
-190.61
-188.00
-182.77
-174.25
-161.86
-145.16
-123.96
-98.43
-69.32
-37.97
-6.11
24.42
52.09
75.86
95.23
110.13
120.68
127.05
129.41
128.02
123.34
116.20
107.75
99.22
91.63
85.49
80.66
76.44
71.83
65.81
57.56
46.73
33.46
18.38
2.48
-13.22
-27.95
-41.30
-53.15
-63.41
-71.73
-77.40
-79.55
-77.47
-71.09
-61.19
-49.33
-37.50
-27.53
-20.67
-17.22
-16.56
-17.37
-18.02
-17.00
-13.29
-6.59
2.73
13.69
25.06
35.63
44.43
50.92
54.92
56.48
55.80
53.05
48.36
41.80
33.52
23.85
13.37
3.04
-5.93
-12.28
-15.13
-14.28
-10.37
-4.65
1.40
6.65
10.49
12.79
13.65
13.15
11.25
7.94
3.36
-2.16
-8.32
-15.05
-22.65
-31.68
-42.68
-55.85
-71.02
-87.76
-105.62
-124.28
-143.29
-161.77
-178.11
-190.17
-195.94
-194.55
-186.88
-175.40
-163.09
-152.14
-142.92
-134.05
-123.20
-108.47
-89.31
-66.79
-42.99
-20.13
0.14
16.93
29.93
39.09
44.49
46.53
46.17
45.08
45.22
48.23
54.57
63.13
71.49
76.63
76.14
69.12
56.49
40.76
25.35
13.71
8.47
10.77
19.79
32.73
45.46
53.57
53.66
44.41
27.02
5.13
-15.78
-29.36
-29.84
-13.79
18.29
61.38
107.05
146.14
172.04
182.92
181.88
174.84
167.64
163.78
163.92
166.96
171.55
176.90
182.43
186.94
188.27
183.96
172.62
155.40
135.98
119.53
110.62
111.27
120.00
132.30
142.33
144.94
137.05
118.02
89.03
51.96
8.52
-39.93
-92.14
-146.73
-202.24
-257.61
-312.41
-366.78
-420.72
-473.16
-521.38
-561.39
-589.04
-601.65
-599.07
-583.65
-559.24
-529.86
-498.59
-467.16
-436.27
-406.16
-376.85
-348.27
-319.93
-290.90
-259.95
-226.01
-188.59
-147.83
-104.37
-58.99
-12.51
34.16
79.71
122.48
160.83
193.61
220.56
242.10
258.76
270.58
276.73
275.94
267.26
250.91
228.50
202.65
176.06
150.71
127.40
106.00
86.07
67.52
50.80
36.80
26.39
20.15
18.21
20.40
26.47
36.41
50.41
68.59
90.53
114.85
139.09
160.14
175.06
181.96
180.49
171.80
157.96
141.25
123.70
106.98
92.67
82.38
77.63
79.43
87.76
101.37
118.17
135.98
153.24
169.24
183.75
196.49
206.75
213.69
217.15
218.40
220.26
226.16
238.64
257.79
280.68
301.74
314.23
312.03
291.31
251.63
196.37
132.03
66.66
7.59
-40.59
-77.11
-104.61
-127.41
-149.37
-172.57
-197.03
-221.65
-245.21
-266.92
-286.16
-301.89
-312.47
-316.13
-311.90
-300.37
-283.67
-264.76
-246.31
-229.79
-215.26
-201.75
-188.05
-173.62
-158.90
-145.29
-134.63
-128.41
-127.03
-129.40
-133.28
-136.00
-135.59
-131.52
-124.76
-117.33
-111.32
-108.20
-108.44
-111.57
-116.49
-121.59
-125.02
-124.79
-119.11
-106.78
-87.60
-62.44
-33.08
-1.78
29.30
58.53
85.07
108.96
130.75
151.00
169.83
186.78
201.12
212.39
220.80
227.23
232.70
237.79
242.31
245.58
246.96
246.37
244.48
242.30
240.59
239.42
238.17
235.86
231.60
224.71
214.67
200.97
183.07
160.57
133.48
102.41
68.59
33.56
-1.22
-34.78
-66.97
-98.41
-130.15
-162.91
-196.44
-228.91
-256.91
-276.06
-282.12
-272.37
-246.62
-207.55
-160.21
-110.84
-65.46
-28.81
-3.69
9.16
10.72
3.26
-10.32
-27.23
-45.44
-64.09
-83.33
-103.62
-124.68
-144.74
-160.41
-167.45
-162.29
-143.52
-112.54
-73.31
-30.96
9.83
46.13
77.19
103.92
127.94
150.60
172.52
193.47
212.68
229.09
241.63
249.44
252.12
250.03
244.56
237.86
232.37
229.79
230.44
232.95
234.73
232.80
224.87
209.92
188.39
161.85
132.42
102.21
72.86
45.44
20.46
-1.83
-21.27
-37.84
-51.67
-63.25
-73.37
-82.92
-92.54
-102.29
-111.66
-119.80
-126.04
-130.13
-132.42
-133.50
-133.91
-133.79
-132.83
-130.58
-126.69
-121.28
-114.91
-108.42
-102.67
-98.23
-95.33
-93.82
-93.46
-93.99
-95.27
-97.26
-100.03
-103.72
-108.50
-114.50
-121.74
-129.91
-138.23
-145.34
-149.22
-147.56
-138.28
-120.24
-93.92
-61.56
-26.75
6.54
35.08
57.28
73.37
84.78
93.23
99.87
104.87
107.80
108.16
105.88
101.51
95.97
90.17
84.69
79.69
75.07
70.71
66.65
63.21
60.80
59.87
60.68
63.25
67.16
71.57
75.22
76.66
74.59
68.24
57.77
44.34
29.89
16.52
5.76
-1.97
-7.60
-12.88
-19.61
-28.82
-40.34
-52.92
-64.70
-74.00
-79.85
-82.14
-81.41
-78.36
-73.38
-66.28
-56.40
-43.03
-26.00
-6.25
13.98
31.41
42.46
44.29
35.84
18.59
-3.36
-23.95
-36.63
-36.00
-19.34
12.55
55.71
104.21
151.74
193.22
225.48
247.39
259.22
261.82
256.15
243.20
224.06
200.23
173.44
145.36
117.11
88.98
60.70
32.05
3.55
-23.30
-46.46
-64.29
-76.45
-84.16
-89.68
-95.14
-101.47
-107.97
-112.69
-113.49
-109.00
-99.17
-85.18
-68.87
-52.06
-36.19
-22.22
-10.70
-1.95
3.85
6.69
6.87
4.97
1.85
-1.58
-4.62
-6.91
-8.56
-9.96
-11.51
-13.42
-15.55
-17.56
-19.13
-20.18
-20.92
-21.71
-22.88
-24.56
-26.62
-28.84
-30.99
-33.01
-34.94
-36.94
-39.07
-41.26
-43.36
-45.18
-46.66
-47.97
-49.47
-51.64
-54.90
-59.44
-65.05
-71.08
-76.38
-79.59
-79.34
-74.74
-65.71
-53.02
-38.16
-22.86
-8.60
3.70
13.64
21.16
26.27
28.90
28.98
26.64
22.27
16.49
10.01
3.45
-2.73
-8.21
-12.76
-16.21
-18.44
-19.43
-19.27
-18.13
-16.23
-13.83
-11.23
-8.79
-6.90
-5.93
-6.17
-7.78
-10.68
-14.59
-19.04
-23.45
-27.33
-30.40
-32.74
-34.77
-37.14
-40.36
-44.57
-49.22
-53.18
-54.97
-53.26
-47.36
-37.46
-24.57
-10.16
4.27
17.65
29.40
39.34
47.46
53.63
57.60
59.13
58.21
55.15
50.62
45.53
40.80
37.14
34.93
34.18
34.56
35.59
36.79
37.80
38.47
38.79
38.78
38.50
37.89
36.86
35.23
32.79
29.34
24.65
18.62
11.36
3.21
-5.24
-13.30
-20.42
-26.42
-31.61
-36.64
-42.16
-48.35
-54.68
-59.89
-62.47
-61.26
-55.97
-47.26
-36.47
-24.98
-13.82
-3.50
5.85
14.05
20.72
25.30
27.29
26.52
23.34
18.60
13.45
9.07
6.50
6.32
8.59
12.90
18.43
24.29
29.68
34.11
37.36
39.35
40.00
39.10
36.44
31.92
25.73
18.37
10.54
2.96
-3.94
-10.02
-15.49
-20.73
-26.17
-32.15
-38.91
-46.54
-54.90
-63.50
-71.43
-77.45
-80.27
-78.97
-73.28
-63.70
-51.37
-37.65
-23.75
-10.57
1.33
11.58
19.91
26.09
30.11
32.26
33.17
33.66
34.48
36.08
38.40
40.97
43.05
44.00
43.56
42.00
39.99
38.21
36.95
35.80
33.91
30.43
24.88
17.33
8.06
-2.82
-15.73
-31.53
-51.07
-74.73
-102.19
-132.48
-164.15
-195.36
-223.74
-246.36
-259.93
-261.44
-249.24
-223.78
-187.91
-146.25
-103.95
-65.25
-32.54
-6.17
14.91
32.12
46.31
57.43
64.92
68.47
68.82
67.86
67.98
71.10
77.85
87.58
98.90
110.34
120.78
129.34
135.04
136.78
133.55
125.02
111.92
95.80
78.39
60.80
43.33
25.94
9.06
-6.04
-17.67
-24.55
-26.61
-25.02
-21.62
-18.07
-15.38
-13.95
-13.97
-15.75
-19.48
-24.83
-30.48
-34.18
-33.46
-26.57
-13.24
5.29
26.70
48.38
68.12
84.37
96.30
103.63
106.50
105.39
101.06
94.37
86.12
76.91
67.14
57.05
46.94
37.23
28.51
21.32
15.97
12.50
10.65
9.97
9.94
10.01
9.66
8.43
6.04
2.43
-2.24
-7.80
-14.22
-21.83
-31.15
-42.55
-55.78
-69.80
-82.92
-93.37
-99.99
-102.70
-102.45
-100.69
-98.75
-97.39
-96.90
-97.47
-99.60
-104.19
-112.14
-123.81
-138.66
-155.32
-171.96
-186.97
-199.22
-208.26
-214.12
-217.17
-217.88
-216.48
-212.65
-205.26
-192.37
-171.81
-141.82
-101.82
-52.60
3.76
64.15
124.59
180.37
226.22
257.08
269.33
262.10
238.00
202.76
163.75
128.01
100.68
84.40
79.63
85.40
100.17
122.18
149.48
179.97
211.53
242.08
269.81
292.84
308.97
315.55
309.81
289.54
253.91
204.09
143.41
76.96
10.82
-49.11
-98.12
-133.66
-155.63
-166.19
-168.78
-167.08
-164.02
-161.34
-159.79
-159.55
-160.74
-163.38
-167.16
-171.19
-173.92
-173.50
-168.35
-157.67
-141.66
-121.60
-99.36
-76.86
-55.59
-36.35
-19.25
-4.11
9.18
20.50
29.46
35.68
39.11
40.12
39.51
38.24
37.18
36.86
37.43
38.62
40.01
41.12
41.60
41.30
40.26
38.59
36.41
33.74
30.45
26.44
21.53
15.59
8.52
0.27
-9.01
-18.74
-27.78
-34.55
-37.41
-35.30
-28.07
-16.65
-2.68
12.05
26.13
38.77
49.70
58.84
66.03
71.00
73.45
73.29
70.80
66.68
61.81
57.01
52.78
49.18
45.91
42.52
38.76
34.68
30.67
27.20
24.63
22.97
21.97
21.19
20.27
18.99
17.26
15.06
12.37
9.12
5.26
0.79
-4.24
-9.64
-15.13
-20.35
-24.95
-28.67
-31.47
-33.56
-35.42
-37.57
-40.52
-44.62
-50.02
-56.51
-63.52
-69.95
-74.37
-75.25
-71.45
-62.62
-49.42
-33.31
-16.09
0.54
15.38
27.78
37.55
44.74
49.50
52.09
52.85
52.24
50.83
49.15
47.66
46.62
46.10
46.01
46.19
46.46
46.70
46.87
46.92
46.80
46.38
45.50
43.99
41.77
38.81
35.23
31.20
26.98
22.76
18.74
14.95
11.37
7.85
4.23
0.39
-3.71
-8.05
-12.46
-16.80
-20.91
-24.70
-28.15
-31.41
-34.71
-38.37
-42.72
-47.94
-53.91
-60.07
-65.40
-68.65
-68.62
-64.56
-56.42
-44.91
-31.28
-17.02
-3.50
8.35
18.04
25.46
30.78
34.22
36.01
36.40
35.68
34.24
32.54
30.99
29.92
29.38
29.28
29.37
29.48
29.48
29.38
29.25
29.10
28.91
28.55
27.88
26.77
25.13
22.96
20.37
17.49
14.53
11.65
8.90
6.26
3.59
0.74
-2.39
-5.79
-9.34
-12.85
-16.10
-18.96
-21.38
-23.46
-25.44
-27.63
-30.35
-33.81
-38.01
-42.65
-47.09
-50.38
-51.52
-49.66
-44.40
-35.99
-25.28
-13.52
-2.07
8.00
16.07
21.96
25.89
28.20
29.23
29.25
28.45
27.02
25.23
23.37
21.72
20.48
19.71
19.33
19.16
19.08
19.00
18.94
18.93
18.95
18.88
18.53
17.67
16.23
14.27
11.99
9.65
7.41
5.32
3.29
1.22
-0.95
-3.21
-5.50
-7.79
-10.08
-12.43
-14.86
-17.32
-19.64
-21.70
-23.46
-25.03
-26.69
-28.75
-31.50
-34.99
-38.99
-42.94
-46.01
-47.29
-45.96
-41.65
-34.55
-25.45
-15.51
-5.95
2.31
8.81
13.52
16.72
18.72
19.74
19.90
19.26
17.94
16.16
14.27
12.59
11.38
10.71
10.53
10.66
10.95
11.33
11.74
12.19
12.58
12.73
12.42
11.52
10.08
8.29
6.43
4.72
3.17
1.65
0.03
-1.76
-3.63
-5.38
-6.93
-8.31
-9.72
-11.36
-13.32
-15.46
-17.50
-19.19
-20.48
-21.48
-22.47
-23.72
-25.40
-27.58
-30.18
-33.00
-35.65
-37.59
-38.11
-36.62
-32.77
-26.68
-18.95
-10.44
-2.12
5.25
11.20
15.57
18.36
19.74
19.85
18.97
17.38
15.46
13.60
12.13
11.29
11.10
11.39
11.79
11.88
11.33
10.07
8.29
6.38
4.73
3.55
2.85
2.41
2.01
1.46
0.72
-0.21
-1.32
-2.60
-4.07
-5.63
-7.09
-8.28
-9.09
-9.62
-10.11
-10.83
-11.96
-13.46
-15.13
-16.73
-18.07
-19.18
-20.24
-21.47
-23.04
-25.03
-27.39
-29.95
-32.41
-34.26
-34.88
-33.64
-30.17
-24.52
-17.24
-9.23
-1.49
5.18
10.31
13.80
15.80
16.58
16.37
15.39
13.78
11.76
9.56
7.49
5.82
4.72
4.19
4.06
4.08
4.06
3.97
3.96
4.18
4.70
5.40
6.00
6.22
5.89
5.05
3.85
2.44
0.96
-0.56
-2.12
-3.71
-5.24
-6.62
-7.83
-8.93
-10.07
-11.40
-12.94
-14.59
-16.18
-17.53
-18.58
-19.45
-20.35
-21.54
-23.21
-25.39
-27.94
-30.52
-32.57
-33.43
-32.49
-29.35
-24.05
-17.11
-9.36
-1.75
4.89
10.10
13.70
15.79
16.56
16.24
15.05
13.19
10.93
8.56
6.38
4.70
3.70
3.44
3.77
4.46
5.21
5.82
6.24
6.55
6.81
7.05
7.15
6.93
6.19
4.88
3.11
1.13
-0.77
-2.34
-3.49
-4.30
-4.96
-5.74
-6.90
-8.58
-10.68
-12.95
-15.04
-16.69
-17.78
-18.43
-18.92
-19.64
-20.89
-22.87
-25.53
-28.57
-31.40
-33.27
-33.45
-31.43
-27.14
-20.96
-13.62
-6.03
1.00
6.88
11.27
14.07
15.31
15.16
13.88
11.84
9.44
7.09
5.13
3.72
2.91
2.63
2.76
3.19
3.82
4.59
5.38
6.09
6.57
6.73
6.52
5.94
5.08
4.04
2.88
1.69
0.46
-0.87
-2.39
-4.21
-6.35
-8.74
-11.21
-13.58
-15.75
-17.72
-19.64
-21.76
-24.33
-27.55
-31.40
-35.59
-39.50
-42.26
-42.94
-40.89
-35.95
-28.59
-19.74
-10.52
-1.89
5.52
11.44
15.83
18.71
20.10
20.05
18.79
16.71
14.33
12.10
10.33
9.06
8.18
7.57
7.16
7.02
7.22
7.72
8.40
9.02
9.32
9.13
8.40
7.17
5.52
3.52
1.23
-1.35
-4.16
-7.20
-10.45
-13.89
-17.44
-21.04
-24.61
-28.11
-31.67
-35.49
-39.85
-44.90
-50.57
-56.32
-61.28
-64.35
-64.52
-61.19
-54.40
-44.77
-33.33
-21.27
-9.60
0.95
9.92
17.12
22.44
25.89
27.59
27.76
26.79
25.11
23.20
21.44
20.11
19.31
19.06
19.26
19.80
20.55
21.38
22.20
22.83
23.12
22.91
22.06
20.57
18.53
16.13
13.53
10.78
7.79
4.36
0.32
-4.31
-9.31
-14.33
-19.10
-23.54
-27.81
-32.28
-37.36
-43.36
-50.34
-58.01
-65.65
-72.11
-76.07
-76.24
-71.84
-62.84
-50.03
-34.80
-18.78
-3.43
10.23
21.60
30.47
36.87
40.94
42.94
43.22
42.21
40.42
38.30
36.26
34.57
33.42
32.88
32.95
33.57
34.63
35.92
37.18
38.04
38.18
37.38
35.61
33.05
30.02
26.78
23.41
19.78
15.60
10.70
5.07
-1.04
-7.29
-13.34
-19.04
-24.45
-29.75
-35.31
-41.55
-48.81
-57.16
-66.11
-74.53
-80.74
-82.96
-79.86
-71.04
-57.17
-39.78
-20.74
-1.83
15.57
30.60
42.73
51.71
57.45
60.14
60.22
58.39
55.51
52.38
49.64
47.64
46.48
46.05
46.20
46.76
47.66
48.83
50.15
51.39
52.17
52.06
50.72
48.05
44.27
39.81
35.18
30.75
26.58
22.42
17.83
12.46
6.19
-0.74
-7.87
-14.67
-20.82
-26.26
-31.27
-36.37
-42.12
-48.98
-57.08
-66.03
-74.83
-81.88
-85.32
-83.42
-75.22
-60.84
-41.55
-19.56
2.65
22.86
39.56
52.08
60.44
65.10
66.67
65.83
63.23
59.56
55.53
51.81
48.85
46.89
45.87
45.59
45.81
46.36
47.10
47.95
48.71
49.04
48.54
46.88
43.89
39.69
34.67
29.33
24.10
19.14
14.32
9.30
3.68
-2.72
-9.77
-17.06
-24.07
-30.43
-36.07
-41.31
-46.76
-53.14
-60.97
-70.26
-80.29
-89.59
-96.16
-98.01
-93.70
-82.84
-66.21
-45.57
-23.11
-0.99
19.14
36.18
49.58
59.13
64.91
67.25
66.76
64.32
60.89
57.37
54.39
52.22
50.80
49.93
49.41
49.20
49.38
50.01
51.02
52.06
52.60
52.06
50.09
46.68
42.12
36.91
31.49
26.14
20.92
15.69
10.29
4.57
-1.54
-7.97
-14.59
-21.24
-27.72
-33.90
-39.72
-45.31
-51.03
-57.41
-64.92
-73.64
-82.89
-91.12
-96.24
-96.15
-89.54
-76.31
-57.68
-35.81
-13.12
8.28
26.98
42.24
53.86
61.91
66.62
68.39
67.72
65.31
61.90
58.25
54.99
52.49
50.89
50.01
49.63
49.49
49.47
49.57
49.84
50.26
50.64
50.62
49.79
47.81
44.53
40.11
34.94
29.53
24.30
19.45
14.85
10.18
5.04
-0.83
-7.39
-14.37
-21.30
-27.74
-33.46
-38.44
-42.88
-47.13
-51.55
-56.54
-62.48
-69.61
-77.80
-86.33
-93.73
-98.04
-97.33
-90.38
-77.15
-58.89
-37.71
-15.96
4.38
21.99
36.22
46.83
53.82
57.33
57.72
55.62
51.90
47.54
43.44
40.22
38.13
37.14
37.00
37.43
38.19
39.16
40.24
41.28
42.10
42.46
42.11
40.92
38.84
35.93
32.28
28.10
23.59
19.01
14.61
10.52
6.70
2.96
-0.98
-5.35
-10.19
-15.37
-20.59
-25.56
-30.09
-34.14
-37.89
-41.64
-45.76
-50.66
-56.58
-63.51
-70.88
-77.52
-81.81
-82.05
-77.06
-66.57
-51.44
-33.33
-14.25
3.97
20.05
33.24
43.18
49.77
53.01
53.19
50.84
46.80
42.03
37.41
33.59
30.85
29.22
28.52
28.53
29.01
29.77
30.69
31.62
32.46
33.07
33.27
32.84
31.57
29.31
26.07
22.02
17.47
12.80
8.33
4.18
0.29
-3.60
-7.77
-12.41
-17.55
-23.02
-28.51
-33.72
-38.41
-42.52
-46.16
-49.67
-53.56
-58.42
-64.68
-72.32
-80.60
-88.05
-92.74
-92.89
-87.43
-76.38
-60.85
-42.63
-23.67
-5.61
10.42
23.85
34.44
42.14
47.01
49.22
49.08
47.12
44.04
40.56
37.32
34.77
33.07
32.15
31.79
31.80
32.02
32.42
33.00
33.68
34.27
34.46
33.88
32.27
29.55
25.92
21.77
17.52
13.50
9.75
6.08
2.15
-2.34
-7.48
-13.16
-19.04
-24.74
-29.99
-34.66
-38.81
-42.68
-46.65
-51.14
-56.58
-63.19
-70.84
-78.75
-85.55
-89.51
-88.97
-82.95
-71.49
-55.70
-37.38
-18.52
-0.77
14.76
27.50
37.26
44.02
47.90
49.14
48.17
45.60
42.14
38.52
35.34
32.96
31.47
30.76
30.57
30.66
30.90
31.25
31.76
32.38
32.95
33.16
32.65
31.14
28.53
25.00
20.90
16.65
12.53
8.61
4.70
0.50
-4.27
-9.68
-15.56
-21.53
-27.14
-32.09
-36.30
-39.93
-43.31
-46.88
-51.12
-56.42
-62.89
-70.20
-77.42
-83.04
-85.34
-82.89
-75.02
-62.16
-45.68
-27.46
-9.43
6.97
20.83
31.74
39.58
44.38
46.29
45.71
43.27
39.78
36.05
32.76
30.32
28.84
28.25
28.33
28.85
29.60
30.44
31.32
32.16
32.83
33.09
32.66
31.27
28.87
25.62
21.92
18.18
14.69
11.47
8.24
4.65
0.39
-4.60
-10.10
-15.71
-20.99
-25.61
-29.50
-32.81
-35.92
-39.33
-43.55
-48.93
-55.44
-62.49
-68.88
-73.06
-73.47
-69.11
-59.86
-46.55
-30.68
-14.00
1.94
16.01
27.49
36.02
41.44
43.87
43.62
41.30
37.69
33.64
29.91
27.05
25.31
24.67
24.86
25.50
26.23
26.88
27.48
28.16
28.98
29.79
30.23
29.85
28.39
25.88
22.67
19.22
15.89
12.79
9.76
6.52
2.79
-1.51
-6.23
-11.08
-15.73
-19.95
-23.68
-27.08
-30.44
-34.07
-38.21
-42.97
-48.32
-54.05
-59.70
-64.48
-67.26
-66.74
-61.79
-51.73
-36.68
-17.56
4.09
26.42
47.63
66.29
81.52
93.12
101.45
107.26
111.32
114.35
117.01
120.09
124.57
131.48
141.46
154.42
169.64
186.23
203.78
222.66
243.53
266.44
289.84
310.47
324.23
327.91
320.74
304.82
284.15
262.75
242.91
224.48
205.37
183.03
155.90
124.11
89.20
53.25
17.95
-15.94
-48.50
-80.29
-111.88
-143.66
-175.92
-209.14
-244.34
-282.85
-325.56
-371.75
-418.01
-458.22
-484.84
-491.21
-474.07
-435.01
-380.05
-317.54
-255.38
-199.05
-151.23
-112.59
-83.03
-62.04
-48.45
-39.89
-32.72
-22.93
-7.69
13.37
37.65
59.89
73.96
74.83
60.55
33.16
-1.68
-36.50
-64.56
-81.87
-87.94
-84.96
-75.60
-61.30
-41.83
-16.52
13.52
43.78
66.62
73.90
60.78
28.79
-13.94
-55.64
-85.97
-100.31
-100.81
-93.73
-84.67
-74.68
-60.11
-36.07
-1.43
38.06
70.95
85.17
74.10
40.28
-5.37
-48.29
-76.36
-84.03
-73.22
-51.17
-26.61
-6.47
5.53
8.55
3.19
-9.66
-28.78
-51.97
-75.60
-95.37
-108.04
-113.30
-114.54
-117.59
-128.04
-148.38
-176.84
-208.16
-235.96
-254.98
-262.20
-256.75
-239.60
-213.52
-183.21
-154.49
-132.56
-120.08
-116.27
-117.82
-121.02
-123.69
-125.62
-127.56
-129.48
-129.62
-125.18
-113.75
-94.34
-67.45
-34.17
4.43
47.01
91.07
132.36
165.45
185.43
189.93
180.28
161.28
139.77
122.41
113.66
114.53
122.85
134.82
147.37
159.97
174.91
195.62
223.93
257.75
290.80
314.65
322.30
311.03
283.36
245.59
204.78
166.09
131.56
100.83
72.88
47.54
25.84
9.18
-1.89
-8.39
-12.67
-17.41
-24.41
-33.97
-44.90
-55.43
-64.19
-70.91
-76.54
-82.53
-89.94
-98.59
-106.90
-112.37
-112.59
-106.28
-93.80
-77.04
-58.74
-41.62
-27.57
-17.42
-10.97
-7.47
-6.01
-5.86
-6.59
-8.03
-10.22
-13.21
-17.07
-21.78
-27.17
-32.71
-37.56
-40.66
-41.21
-39.17
-35.47
-31.83
-29.86
-29.97
-30.69
-28.65
-19.57
0.49
33.75
79.89
135.79
195.93
253.24
300.44
331.59
343.42
336.04
312.66
278.36
238.46
197.15
156.87
118.53
82.20
47.88
15.89
-13.08
-38.19
-58.68
-73.99
-83.91
-88.57
-88.44
-84.15
-76.63
-66.93
-56.29
-46.05
-37.42
-31.23
-27.65
-26.16
-25.74
-25.29
-24.00
-21.56
-18.20
-14.41
-10.72
-7.38
-4.32
-1.27
2.04
5.66
9.34
12.54
14.69
15.40
14.67
12.85
10.54
8.28
6.37
4.72
2.99
0.75
-2.24
-5.97
-10.17
-14.46
-18.54
-22.25
-25.71
-29.13
-32.86
-37.27
-42.75
-49.47
-57.23
-65.22
-72.08
-76.16
-75.95
-70.64
-60.38
-46.21
-29.77
-12.78
3.38
17.71
29.71
39.11
45.83
49.92
51.61
51.26
49.45
46.83
44.07
41.74
40.17
39.43
39.35
39.67
40.13
40.66
41.24
41.90
42.51
42.80
42.40
41.03
38.67
35.51
31.91
28.20
24.53
20.89
17.11
13.03
8.56
3.75
-1.21
-6.05
-10.52
-14.41
-17.69
-20.56
-23.40
-26.76
-31.17
-36.94
-43.92
-51.37
-58.03
-62.39
-63.04
-59.19
-50.80
-38.71
-24.30
-9.19
5.19
17.80
28.04
35.69
40.76
43.37
43.77
42.32
39.51
35.98
32.37
29.22
26.89
25.47
24.87
24.86
25.21
25.76
26.39
26.98
27.36
27.32
26.63
25.18
23.01
20.35
17.53
14.79
12.19
9.58
6.60
2.93
-1.58
-6.75
-12.19
-17.38
-21.95
-25.81
-29.17
-32.44
-36.13
-40.64
-46.21
-52.73
-59.60
-65.79
-69.90
-70.55
-66.81
-58.59
-46.66
-32.45
-17.60
-3.49
8.92
19.12
26.92
32.28
35.34
36.37
35.81
34.15
31.90
29.40
26.92
24.63
22.69
21.22
20.25
19.75
19.59
19.66
19.84
20.04
20.12
19.86
19.03
17.48
15.23
12.50
9.60
6.72
3.84
0.78
-2.74
-6.82
-11.30
-15.80
-19.92
-23.43
-26.45
-29.40
-32.85
-37.30
-42.91
-49.42
-56.03
-61.59
-64.78
-64.43
-59.91
-51.34
-39.59
-26.05
-12.27
0.44
11.25
19.79
26.03
30.14
32.31
32.78
31.86
29.95
27.48
24.85
22.33
20.08
18.16
16.58
15.38
14.58
14.22
14.24
14.50
14.81
14.94
14.72
14.00
12.78
11.05
8.85
6.20
3.15
-0.20
-3.74
-7.29
-10.76
-14.14
-17.52
-21.07
-24.93
-29.15
-33.75
-38.74
-44.08
-49.65
-54.99
-59.25
-61.28
-59.94
-54.53
-45.19
-32.98
-19.56
-6.66
4.41
13.07
19.39
23.70
26.35
27.48
27.14
25.45
22.79
19.78
17.10
15.22
14.24
13.84
13.59
13.13
12.40
11.64
11.18
11.22
11.68
12.16
12.12
11.11
8.93
5.72
1.90
-2.04
-5.66
-8.80
-11.50
-14.05
-16.85
-20.39
-25.12
-31.18
-38.20
-45.20
-50.66
-53.01
-51.15
-44.88
-35.01
-23.02
-10.54
1.10
11.10
19.09
24.94
28.58
29.99
29.29
26.86
23.32
19.38
15.70
12.73
10.62
9.29
8.45
7.82
7.18
6.53
5.99
5.70
5.65
5.60
5.15
3.92
1.78
-1.10
-4.33
-7.49
-10.39
-13.06
-15.78
-18.88
-22.66
-27.29
-32.74
-38.68
-44.42
-48.88
-50.82
-49.20
-43.60
-34.45
-22.89
-10.49
1.32
11.48
19.48
25.20
28.73
30.24
29.91
28.06
25.11
21.63
18.26
15.51
13.63
12.61
12.15
11.87
11.50
10.99
10.46
10.09
9.92
9.79
9.37
8.32
6.47
3.86
0.81
-2.27
-5.01
-7.21
-8.97
-10.62
-12.70
-15.72
-20.03
-25.61
-32.04
-38.46
-43.70
-46.55
-46.02
-41.62
-33.61
-22.94
-10.97
0.86
11.47
20.22
26.95
31.66
34.41
35.20
34.06
31.28
27.38
23.09
19.13
15.99
13.82
12.49
11.70
11.21
10.89
10.74
10.80
11.03
11.29
11.34
10.94
9.89
8.09
5.53
2.28
-1.48
-5.53
-9.65
-13.63
-17.36
-20.81
-24.05
-27.27
-30.74
-34.80
-39.70
-45.42
-51.44
-56.74
-59.90
-59.61
-55.10
-46.50
-34.79
-21.52
-8.22
3.89
14.13
22.23
28.11
31.78
33.36
33.10
31.45
28.99
26.31
23.84
21.83
20.33
19.33
18.81
18.72
18.95
19.36
19.76
19.97
19.88
19.42
18.58
17.36
15.73
13.71
11.26
8.36
4.99
1.21
-2.90
-7.15
-11.33
-15.30
-19.01
-22.60
-26.33
-30.54
-35.53
-41.38
-47.79
-53.96
-58.66
-60.50
-58.39
-51.95
-41.69
-28.89
-15.21
-2.17
9.15
18.27
25.10
29.81
32.63
33.81
33.64
32.49
30.77
28.86
27.05
25.50
24.27
23.33
22.70
22.42
22.54
23.13
24.11
25.22
26.09
26.28
25.50
23.66
20.98
17.88
14.79
12.00
9.50
7.03
4.24
0.82
-3.24
-7.69
-12.08
-15.96
-19.12
-21.67
-23.97
-26.55
-29.97
-34.60
-40.49
-47.23
-53.88
-59.08
-61.37
-59.61
-53.41
-43.29
-30.53
-16.79
-3.56
8.05
17.57
24.83
29.88
32.83
33.81
33.12
31.22
28.71
26.14
23.90
22.11
20.73
19.62
18.75
18.20
18.10
18.60
19.63
20.98
22.24
22.98
22.87
21.81
19.95
17.61
15.14
12.75
10.42
7.94
5.09
1.70
-2.12
-6.08
-9.84
-13.10
-15.84
-18.21
-20.55
-23.24
-26.62
-30.90
-36.06
-41.72
-47.06
-50.98
-52.28
-50.09
-44.18
-35.05
-23.79
-11.74
-0.11
10.26
18.87
25.52
30.10
32.54
32.96
31.62
29.04
25.83
22.64
19.88
17.81
16.49
15.87
15.85
16.29
17.00
17.70
18.14
18.08
17.44
16.26
14.72
13.00
11.15
9.13
6.79
3.97
0.60
-3.27
-7.47
-11.78
-15.96
-19.83
-23.34
-26.58
-29.82
-33.47
-37.95
-43.54
-50.12
-56.98
-62.89
-66.31
-65.91
-61.03
-51.89
-39.61
-25.73
-11.85
0.83
11.62
20.28
26.80
31.25
33.77
34.54
33.89
32.27
30.14
27.90
25.79
23.93
22.40
21.24
20.54
20.35
20.66
21.34
22.12
22.69
22.75
22.11
20.74
18.74
16.28
13.56
10.64
7.52
4.05
0.13
-4.29
-9.06
-13.94
-18.62
-22.93
-26.93
-30.87
-35.18
-40.29
-46.40
-53.25
-60.05
-65.50
-68.14
-66.75
-60.75
-50.49
-37.10
-22.21
-7.44
5.89
17.02
25.70
31.95
36.03
38.22
38.87
38.35
37.10
35.52
33.97
32.68
31.72
31.05
30.52
30.06
29.61
29.25
29.07
29.07
29.13
28.97
28.31
26.92
24.75
21.95
18.72
15.21
11.47
7.46
3.11
-1.60
-6.54
-11.50
-16.25
-20.64
-24.68
-28.55
-32.61
-37.26
-42.82
-49.25
-56.07
-62.24
-66.40
-67.20
-63.71
-55.74
-43.98
-29.80
-14.87
-0.73
11.50
21.29
28.56
33.51
36.42
37.58
37.30
35.95
34.00
31.88
30.00
28.58
27.70
27.29
27.24
27.45
27.80
28.20
28.51
28.59
28.32
27.59
26.36
24.63
22.42
19.74
16.66
13.21
9.42
5.31
0.90
-3.72
-8.44
-13.09
-17.48
-21.55
-25.43
-29.44
-33.99
-39.40
-45.54
-51.75
-56.88
-59.55
-58.59
-53.44
-44.34
-32.26
-18.66
-5.00
7.51
18.09
26.37
32.19
35.55
36.53
35.37
32.53
28.70
24.73
21.40
19.24
18.34
18.43
19.04
19.69
20.10
20.26
20.27
20.28
20.29
20.10
19.38
17.80
15.13
11.40
6.86
1.93
-2.99
-7.59
-11.84
-15.91
-20.19
-25.10
-30.95
-37.84
-45.49
-53.18
-59.77
-63.91
-64.37
-60.38
-51.94
-39.87
-25.52
-10.43
4.04
16.94
27.71
36.07
41.90
45.22
46.28
45.51
43.54
41.00
38.42
36.12
34.22
32.79
31.82
31.31
31.19
31.28
31.33
31.07
30.29
28.92
26.97
24.48
21.46
17.85
13.58
8.64
3.15
-2.64
-8.44
-13.94
-18.99
-23.65
-28.15
-32.83
-38.11
-44.26
-51.40
-59.31
-67.29
-74.24
-78.74
-79.35
-75.12
-65.87
-52.35
-36.03
-18.76
-2.18
12.50
24.66
34.15
41.07
45.64
48.13
48.87
48.27
46.84
45.01
43.10
41.28
39.60
38.10
36.86
36.05
35.79
36.11
36.84
37.61
38.02
37.71
36.52
34.50
31.81
28.64
25.12
21.31
17.18
12.70
7.91
2.89
-2.24
-7.32
-12.21
-16.84
-21.18
-25.35
-29.65
-34.51
-40.40
-47.55
-55.67
-63.79
-70.35
-73.64
-72.29
-65.76
-54.53
-39.94
-23.73
-7.65
6.97
19.28
28.97
36.06
40.80
43.52
44.60
44.41
43.32
41.72
39.94
38.28
36.94
36.03
35.56
35.51
35.87
36.56
37.49
38.42
39.10
39.24
38.72
37.53
35.78
33.60
31.09
28.29
25.22
21.91
18.43
14.91
11.48
8.20
5.07
2.00
-1.17
-4.55
-8.19
-12.04
-15.95
-19.74
-23.27
-26.52
-29.60
-32.73
-36.20
-40.30
-45.21
-50.90
-56.94
-62.41
-66.03
-66.44
-62.66
-54.51
-42.75
-28.87
-14.60
-1.39
9.94
19.14
26.29
31.49
34.67
35.76
34.82
32.23
28.70
25.04
21.99
19.95
18.97
18.80
19.12
19.69
20.37
21.17
22.07
23.00
23.77
24.15
23.93
23.04
21.52
19.50
17.12
14.51
11.77
8.98
6.24
3.56
0.91
-1.83
-4.77
-7.94
-11.24
-14.43
-17.34
-19.89
-22.15
-24.40
-26.95
-30.07
-33.94
-38.60
-43.89
-49.36
-54.24
-57.49
-57.98
-54.84
-47.75
-37.20
-24.35
-10.69
2.30
13.51
22.37
28.70
32.59
34.28
34.02
32.17
29.23
25.85
22.68
20.22
18.68
17.95
17.77
17.82
17.98
18.23
18.66
19.33
20.12
20.78
21.03
20.63
19.45
17.56
15.09
12.26
9.32
6.47
3.83
1.39
-0.98
-3.48
-6.31
-9.52
-13.05
-16.73
-20.40
-23.89
-27.12
-30.08
-32.86
-35.68
-38.88
-42.87
-47.96
-54.04
-60.38
-65.74
-68.59
-67.62
-62.22
-52.70
-40.20
-26.26
-12.46
0.04
10.54
18.84
25.00
29.22
31.72
32.73
32.50
31.30
29.48
27.40
25.39
23.69
22.44
21.63
21.26
21.25
21.55
22.11
22.80
23.49
23.98
24.14
23.81
22.93
21.43
19.34
16.74
13.81
10.78
7.83
5.09
2.57
0.14
-2.38
-5.16
-8.28
-11.68
-15.20
-18.59
-21.64
-24.28
-26.60
-28.84
-31.36
-34.55
-38.70
-43.88
-49.87
-55.96
-61.07
-63.86
-63.12
-58.16
-49.10
-36.86
-22.94
-8.95
3.75
14.34
22.50
28.27
31.89
33.58
33.61
32.28
30.08
27.53
25.15
23.33
22.22
21.72
21.63
21.71
21.83
22.01
22.29
22.75
23.31
23.80
23.94
23.49
22.27
20.31
17.77
14.93
12.04
9.25
6.58
3.92
1.10
-2.01
-5.42
-9.06
-12.75
-16.30
-19.51
-22.31
-24.78
-27.09
-29.56
-32.51
-36.26
-40.96
-46.48
-52.29
-57.43
-60.69
-60.87
-57.16
-49.49
-38.58
-25.74
-12.50
-0.21
10.28
18.61
24.78
28.91
31.19
31.76
30.86
28.81
26.06
23.12
20.45
18.39
17.06
16.42
16.30
16.52
16.98
17.64
18.49
19.45
20.28
20.67
20.30
19.05
17.00
14.48
11.88
9.46
7.24
5.02
2.50
-0.57
-4.22
-8.22
-12.21
-15.80
-18.81
-21.28
-23.47
-25.79
-28.60
-32.16
-36.50
-41.42
-46.43
-50.73
-53.30
-53.14
-49.53
-42.37
-32.25
-20.32
-7.97
3.52
13.30
20.94
26.35
29.63
30.97
30.60
28.87
26.22
23.13
20.06
17.38
15.32
13.96
13.31
13.29
13.80
14.68
15.72
16.64
17.16
17.06
16.24
14.78
12.88
10.73
8.43
5.99
3.27
0.09
-3.61
-7.77
-12.22
-16.73
-21.07
-25.09
-28.77
-32.20
-35.64
-39.47
-44.05
-49.61
-55.92
-62.21
-67.22
-69.45
-67.73
-61.54
-51.34
-38.33
-24.11
-10.15
2.49
13.25
21.95
28.54
33.05
35.57
36.34
35.73
34.25
32.36
30.39
28.54
26.84
25.34
24.14
23.36
23.08
23.26
23.73
24.18
24.29
23.85
22.81
21.26
19.34
17.14
14.63
11.66
8.12
3.99
-0.58
-5.31
-9.87
-14.00
-17.65
-20.98
-24.29
-28.01
-32.57
-38.30
-45.26
-53.14
-61.09
-67.79
-71.71
-71.54
-66.58
-57.00
-43.85
-28.69
-13.17
1.35
14.01
24.41
32.49
38.32
42.05
43.89
44.10
43.06
41.19
38.90
36.56
34.45
32.78
31.63
31.01
30.86
31.09
31.58
32.20
32.79
33.13
32.96
32.05
30.25
27.57
24.23
20.57
16.90
13.35
9.84
6.09
1.83
-3.04
-8.36
-13.73
-18.75
-23.14
-26.94
-30.50
-34.39
-39.19
-45.22
-52.30
-59.67
-65.99
-69.75
-69.63
-64.94
-55.86
-43.32
-28.76
-13.67
0.66
13.28
23.62
31.42
36.64
39.46
40.24
39.47
37.69
35.43
33.13
31.15
29.68
28.77
28.31
28.16
28.18
28.33
28.67
29.20
29.79
30.18
30.01
29.01
27.16
24.67
21.87
19.04
16.20
13.18
9.67
5.48
0.67
-4.43
-9.34
-13.68
-17.31
-20.40
-23.34
-26.65
-30.79
-35.99
-42.11
-48.52
-54.12
-57.53
-57.51
-53.27
-44.88
-33.21
-19.67
-5.79
7.14
18.30
27.30
33.97
38.30
40.29
40.15
38.30
35.43
32.28
29.49
27.39
26.00
25.18
24.76
24.72
25.13
26.02
27.26
28.50
29.26
29.12
27.90
25.69
22.84
19.75
16.73
13.90
11.21
8.44
5.36
1.77
-2.35
-6.90
-11.65
-16.29
-20.59
-24.46
-27.97
-31.39
-35.11
-39.54
-44.94
-51.17
-57.56
-62.94
-65.89
-65.18
-60.18
-51.15
-39.11
-25.52
-11.76
1.10
12.47
22.05
29.66
35.16
38.50
39.72
39.13
37.23
34.66
32.04
29.87
28.41
27.72
27.65
27.93
28.35
28.82
29.38
30.10
30.98
31.81
32.24
31.90
30.60
28.34
25.39
22.07
18.63
15.21
11.80
8.32
4.67
0.80
-3.28
-7.50
-11.70
-15.69
-19.30
-22.44
-25.25
-28.08
-31.38
-35.64
-41.06
-47.42
-53.99
-59.59
-62.82
-62.52
-58.03
-49.49
-37.77
-24.27
-10.51
2.24
13.20
22.03
28.71
33.36
36.12
37.14
36.66
35.07
32.83
30.43
28.27
26.62
25.63
25.30
25.60
26.37
27.43
28.52
29.46
30.12
30.41
30.34
29.86
28.88
27.36
25.31
22.86
20.24
17.66
15.24
12.95
10.67
8.23
5.46
2.32
-1.20
-4.98
-8.85
-12.58
-15.97
-18.91
-21.47
-23.89
-26.52
-29.68
-33.62
-38.36
-43.65
-48.90
-53.22
-55.56
-54.90
-50.67
-42.93
-32.46
-20.55
-8.62
2.20
11.18
18.12
23.02
26.03
27.29
27.00
25.46
23.15
20.58
18.27
16.53
15.50
15.08
15.11
15.40
15.84
16.39
17.01
17.70
18.36
18.91
19.21
19.19
18.71
17.71
16.10
13.91
11.27
8.46
5.78
3.44
1.45
-0.40
-2.37
-4.65
-7.23
-9.91
-12.41
-14.54
-16.31
-17.88
-19.55
-21.63
-24.39
-27.96
-32.28
-36.99
-41.37
-44.46
-45.27
-43.08
-37.72
-29.69
-19.98
-9.75
-0.07
8.37
15.22
20.39
23.93
25.92
26.44
25.64
23.80
21.29
18.61
16.24
14.52
13.62
13.41
13.63
13.99
14.28
14.45
14.57
14.70
14.79
14.67
14.09
12.84
10.89
8.34
5.44
2.51
-0.23
-2.65
-4.82
-6.94
-9.20
-11.70
-14.37
-17.01
-19.38
-21.35
-22.98
-24.50
-26.23
-28.47
-31.42
-35.14
-39.47
-44.04
-48.17
-50.98
-51.50
-49.01
-43.30
-34.78
-24.41
-13.48
-3.15
5.72
12.73
17.88
21.33
23.31
23.97
23.48
22.04
20.00
17.77
15.73
14.15
13.07
12.40
11.99
11.70
11.53
11.57
11.89
12.50
13.24
13.85
14.03
13.54
12.31
10.46
8.26
6.02
4.01
2.25
0.63
-1.16
-3.37
-6.12
-9.32
-12.72
-15.96
-18.78
-21.07
-22.90
-24.53
-26.32
-28.68
-31.88
-36.04
-40.87
-45.72
-49.60
-51.42
-50.31
-45.92
-38.54
-29.03
-18.54
-8.20
1.13
8.95
15.09
19.58
22.49
23.95
24.13
23.30
21.80
20.02
18.31
16.91
15.94
15.39
15.18
15.25
15.51
15.92
16.45
17.07
17.70
18.24
18.56
18.46
17.76
16.37
14.34
11.89
9.32
6.90
4.77
2.87
0.98
-1.17
-3.75
-6.74
-9.93
-13.05
-15.86
-18.31
-20.51
-22.73
-25.18
-28.11
-31.65
-35.79
-40.35
-44.88
-48.63
-50.67
-50.16
-46.58
-40.00
-31.06
-20.79
-10.31
-0.58
7.79
14.52
19.51
22.74
24.29
24.27
22.97
20.78
18.20
15.73
13.75
12.48
11.93
11.97
12.37
12.99
13.72
14.58
15.57
16.66
17.63
18.21
18.10
17.16
15.51
13.45
11.32
9.34
7.51
5.59
3.29
0.41
-3.03
-6.79
-10.46
-13.68
-16.23
-18.12
-19.64
-21.21
-23.29
-26.22
-30.11
-34.64
-39.13
-42.60
-44.00
-42.52
-37.81
-30.12
-20.26
-9.41
1.22
10.65
18.28
23.87
27.42
29.08
29.09
27.77
25.58
23.03
20.59
18.60
17.13
16.06
15.20
14.43
13.80
13.49
13.69
14.42
15.44
16.35
16.66
16.08
14.57
12.39
9.95
7.63
5.67
4.01
2.41
0.49
-2.04
-5.27
-9.07
-13.09
-16.99
-20.47
-23.46
-26.09
-28.63
-31.44
-34.87
-39.18
-44.39
-50.17
-55.74
-59.89
-61.29
-58.96
-52.56
-42.67
-30.57
-17.85
-5.89
4.46
12.87
19.40
24.26
27.59
29.51
30.10
29.58
28.26
26.49
24.63
22.97
21.70
20.92
20.71
21.04
21.86
23.04
24.39
25.69
26.69
27.17
26.96
25.96
24.24
21.99
19.46
16.88
14.34
11.77
8.99
5.82
2.17
-1.86
-6.05
-10.15
-13.98
-17.48
-20.77
-24.05
-27.57
-31.61
-36.38
-41.96
-48.14
-54.34
-59.51
-62.39
-61.83
-57.19
-48.64
-37.11
-23.99
-10.72
1.59
12.30
21.15
28.07
33.02
36.02
37.17
36.78
35.27
33.16
30.96
29.01
27.52
26.55
26.01
25.78
25.75
25.87
26.15
26.61
27.18
27.64
27.71
27.08
25.62
23.44
20.79
17.97
15.16
12.37
9.45
6.22
2.61
-1.32
-5.37
-9.30
-12.92
-16.12
-18.99
-21.77
-24.89
-28.81
-33.86
-39.99
-46.64
-52.69
-56.73
-57.48
-54.17
-46.84
-36.28
-23.76
-10.65
1.85
12.89
21.92
28.64
32.92
34.86
34.76
33.16
30.68
27.95
25.45
23.45
22.06
21.26
20.99
21.17
21.74
22.65
23.79
24.99
26.01
26.61
26.57
25.81
24.37
22.40
20.07
17.52
14.78
11.82
8.60
5.12
1.43
-2.36
-6.12
-9.73
-13.13
-16.36
-19.57
-23.08
-27.22
-32.23
-38.05
-44.15
-49.57
-53.02
-53.32
-49.71
-42.17
-31.43
-18.79
-5.71
6.52
17.00
25.31
31.34
35.16
36.92
36.87
35.39
32.98
30.26
27.74
25.77
24.43
23.59
23.03
22.60
22.32
22.26
22.52
23.02
23.50
23.65
23.17
21.92
19.96
17.49
14.72
11.77
8.64
5.22
1.40
-2.84
-7.42
-12.08
-16.58
-20.74
-24.54
-28.14
-31.85
-36.02
-40.93
-46.67
-53.03
-59.42
-64.88
-68.20
-68.22
-64.19
-56.01
-44.38
-30.57
-16.09
-2.24
10.06
20.35
28.45
34.36
38.10
39.77
39.62
38.07
35.66
32.98
30.50
28.53
27.14
26.27
25.83
25.73
26.01
26.70
27.78
29.14
30.44
31.30
31.35
30.37
28.44
25.81
22.83
19.77
16.71
13.50
9.91
5.76
1.07
-3.98
-9.04
-13.80
-18.06
-21.87
-25.46
-29.16
-33.34
-38.30
-44.09
-50.40
-56.54
-61.43
-63.83
-62.76
-57.75
-49.06
-37.68
-24.96
-12.30
-0.80
8.88
16.50
22.05
25.70
27.58
27.90
26.88
24.91
22.45
20.08
18.37
17.76
18.42
20.26
22.89
25.82
28.56
30.82
32.50
33.68
34.50
35.11
35.57
35.86
35.88
35.51
34.64
33.25
31.45
29.52
27.86
26.88
26.80
27.54
28.58
29.11
28.34
25.83
21.86
17.51
14.33
13.83
16.88
23.25
31.75
40.60
48.06
52.90
54.54
52.87
48.01
40.16
29.46
16.03
-0.18
-19.21
-40.96
-64.82
-89.39
-112.48
-131.56
-144.65
-151.00
-151.41
-147.80
-142.38
-136.74
-131.39
-125.95
-119.66
-112.04
-103.20
-93.76
-84.45
-75.71
-67.50
-59.35
-50.68
-41.16
-30.93
-20.58
-10.88
-2.52
4.15
9.11
12.52
14.56
15.39
15.31
14.93
15.22
17.37
22.46
31.16
43.59
59.42
78.04
98.72
120.47
141.90
161.23
176.62
186.85
191.82
192.68
191.32
189.51
188.16
187.14
185.76
183.55
180.69
177.89
175.71
173.99
171.83
168.31
163.38
158.39
155.44
156.10
159.92
163.87
163.12
152.90
130.48
96.43
54.39
9.66
-32.67
-69.27
-99.20
-123.42
-143.85
-162.16
-178.95
-193.54
-204.22
-209.00
-206.47
-196.37
-179.82
-158.93
-136.11
-113.33
-91.70
-71.62
-53.27
-37.18
-24.48
-16.52
-14.05
-16.56
-22.13
-28.10
-32.17
-33.32
-32.10
-30.13
-29.19
-30.40
-33.96
-39.55
-46.83
-55.80
-66.63
-79.27
-93.15
-107.26
-120.43
-131.56
-139.36
-141.76
-135.77
-118.23
-87.55
-45.48
2.14
46.68
79.53
95.34
94.01
80.35
61.82
45.37
35.18
31.96
33.92
38.45
43.51
48.06
51.74
54.30
55.36
54.63
52.28
49.27
47.17
47.50
50.91
56.82
63.67
69.66
73.58
75.14
74.71
72.74
69.26
63.96
56.59
47.50
37.78
28.91
22.15
18.09
16.56
16.94
18.66
21.47
25.20
29.20
31.84
30.52
22.30
5.08
-21.41
-55.12
-92.20
-128.05
-158.83
-182.30
-197.98
-206.55
-208.90
-205.44
-196.07
-180.61
-159.27
-132.66
-101.41
-65.87
-26.27
16.38
59.36
98.04
126.93
141.96
142.44
131.87
116.71
103.78
97.55
98.86
105.37
113.29
119.04
120.09
114.61
100.76
76.66
41.32
-4.03
-55.01
-104.73
-145.66
-172.22
-182.61
-179.09
-166.69
-151.13
-136.91
-126.54
-120.68
-118.74
-119.28
-120.34
-119.56
-114.72
-104.43
-88.79
-69.42
-48.62
-28.21
-8.91
9.82
28.88
48.64
68.39
86.72
102.34
114.72
124.15
131.15
135.97
138.29
137.66
134.16
128.84
123.44
119.76
118.68
119.75
121.25
120.60
114.97
101.86
79.69
48.43
10.07
-31.28
-70.21
-101.53
-121.99
-131.34
-132.27
-129.19
-126.47
-127.07
-131.97
-140.46
-150.96
-161.64
-170.67
-176.28
-176.69
-170.43
-156.84
-136.32
-110.35
-81.03
-50.36
-19.83
9.78
38.11
64.98
90.05
112.80
132.39
147.73
157.54
160.69
156.56
145.45
128.78
108.78
87.98
68.40
51.05
35.91
22.31
9.46
-3.11
-15.41
-27.22
-38.25
-48.39
-57.66
-66.28
-74.65
-83.40
-93.24
-104.63
-117.42
-130.56
-142.34
-151.08
-155.86
-157.13
-156.45
-155.80
-156.61
-159.06
-162.20
-164.32
-163.82
-159.53
-150.95
-138.04
-121.15
-101.13
-79.41
-57.98
-38.90
-23.79
-13.16
-6.40
-1.97
1.85
6.40
12.17
18.84
25.52
31.23
35.26
37.35
37.68
36.81
35.39
34.02
33.10
32.75
32.92
33.41
34.05
34.65
35.00
34.92
34.30
33.10
31.45
29.61
27.88
26.61
26.14
26.81
28.79
31.99
35.87
39.50
41.84
42.22
40.78
38.55
37.15
38.15
42.50
50.18
60.35
71.80
83.33
94.08
103.43
110.91
116.02
118.34
117.61
114.05
108.31
101.41
94.42
88.25
83.33
79.64
76.73
73.97
70.71
66.47
61.04
54.44
46.85
38.52
29.66
20.46
11.04
1.51
-7.98
-17.28
-26.16
-34.37
-41.70
-48.06
-53.58
-58.58
-63.48
-68.66
-74.41
-80.81
-87.79
-95.07
-102.09
-107.98
-111.58
-111.66
-107.32
-98.26
-85.06
-69.01
-51.74
-34.78
-19.24
-5.73
5.47
14.29
20.73
24.91
27.12
27.87
27.78
27.47
27.37
27.68
28.37
29.31
30.42
31.66
33.08
34.65
36.24
37.61
38.45
38.51
37.73
36.20
34.08
31.51
28.54
25.14
21.35
17.33
13.31
9.55
6.13
2.96
-0.20
-3.62
-7.43
-11.60
-16.07
-20.81
-25.91
-31.39
-37.00
-42.02
-45.32
-45.67
-42.20
-34.86
-24.47
-12.46
-0.36
10.67
20.06
27.70
33.67
37.96
40.42
40.95
39.69
37.16
34.07
31.15
28.86
27.36
26.57
26.39
26.75
27.60
28.87
30.35
31.76
32.84
33.45
33.59
33.31
32.60
31.37
29.53
27.02
23.98
20.67
17.40
14.39
11.77
9.53
7.60
5.87
4.09
1.96
-0.96
-5.07
-10.50
-16.89
-23.29
-28.33
-30.48
-28.57
-22.08
-11.41
2.15
16.67
30.00
40.17
45.81
46.46
42.63
35.66
27.40
19.59
13.32
8.76
5.17
1.42
-3.37
-9.40
-16.04
-22.10
-26.20
-26.94
-22.90
-12.63
5.04
30.26
61.64
96.29
130.69
161.96
188.69
210.84
228.75
242.09
249.43
248.88
239.25
220.81
195.18
164.25
128.93
88.71
42.37
-10.39
-67.66
-124.91
-175.53
-212.44
-229.83
-224.76
-198.09
-154.36
-100.52
-43.91
9.81
57.85
99.86
136.31
166.72
188.95
200.18
198.89
186.57
167.69
148.03
132.11
121.41
114.47
108.41
100.93
91.51
81.16
71.32
62.67
54.65
45.97
35.44
22.58
7.71
-8.43
-25.31
-42.88
-61.54
-81.72
-103.32
-125.54
-146.84
-165.51
-180.23
-190.38
-195.99
-197.27
-194.15
-186.37
-173.91
-157.63
-139.64
-122.83
-109.97
-102.54
-100.10
-100.57
-101.12
-99.32
-93.98
-85.31
-74.59
-63.55
-53.80
-46.63
-42.87
-42.78
-45.99
-51.38
-57.24
-61.75
-63.65
-62.85
-60.68
-59.48
-61.67
-68.52
-79.34
-91.62
-102.06
-108.05
-108.77
-105.27
-99.57
-93.27
-86.63
-78.57
-67.71
-53.73
-38.17
-24.14
-14.93
-12.43
-16.10
-23.41
-31.06
-36.51
-38.77
-38.12
-35.14
-29.75
-20.99
-7.61
10.85
33.23
56.59
76.93
90.57
95.37
91.25
79.71
62.62
41.18
15.76
-13.32
-44.44
-74.12
-97.66
-110.80
-111.76
-102.16
-86.45
-70.12
-57.77
-51.92
-53.01
-60.17
-71.89
-86.41
-101.63
-115.03
-123.95
-126.03
-119.80
-104.99
-82.57
-54.45
-22.95
9.69
41.72
71.91
99.46
123.80
144.24
159.97
170.27
174.81
174.02
169.10
161.85
153.90
146.01
137.39
125.94
109.19
85.80
56.78
25.54
-3.27
-25.74
-40.26
-47.99
-51.85
-54.79
-58.39
-62.48
-65.94
-67.91
-68.63
-69.33
-71.36
-75.22
-80.19
-84.85
-88.03
-89.68
-90.99
-93.74
-99.09
-106.69
-114.49
-119.44
-118.65
-110.46
-95.00
-73.84
-49.27
-23.29
2.82
28.47
53.07
75.52
93.94
106.17
110.74
107.80
99.32
88.52
78.70
71.89
68.32
66.79
65.66
63.96
61.81
59.95
58.92
58.58
58.19
56.94
54.45
50.70
45.46
37.71
25.93
9.01
-12.56
-36.19
-58.13
-75.31
-87.03
-95.30
-103.66
-114.91
-129.46
-145.08
-158.11
-165.39
-165.76
-160.21
-150.99
-140.32
-129.41
-118.28
-106.23
-92.52
-76.91
-59.92
-42.88
-27.65
-15.96
-8.67
-5.27
-3.97
-2.46
1.01
6.89
14.59
23.44
33.88
47.90
68.18
96.41
131.80
170.59
207.21
236.24
254.33
260.92
257.59
246.76
230.42
209.58
184.45
155.26
122.84
88.78
55.06
23.32
-5.65
-32.00
-56.36
-79.08
-99.65
-116.54
-127.77
-131.70
-127.84
-117.08
-101.55
-83.95
-66.90
-52.50
-42.06
-35.99
-33.68
-33.69
-34.02
-32.84
-28.98
-22.25
-13.26
-2.96
7.76
18.18
27.51
34.77
38.86
39.13
35.86
30.47
25.16
22.03
22.18
25.35
30.16
34.94
38.47
40.36
40.99
40.94
40.54
39.60
37.58
33.93
28.38
21.10
12.64
3.81
-4.49
-11.23
-15.33
-15.76
-11.75
-3.20
9.27
24.41
40.62
56.43
70.77
83.08
93.17
100.93
106.15
108.46
107.43
102.84
95.02
84.96
74.20
64.49
57.25
53.19
52.14
53.24
55.38
57.55
59.20
60.24
60.80
60.98
60.59
59.10
55.95
50.85
44.05
36.33
28.57
21.42
14.82
8.15
0.42
-9.12
-20.62
-33.66
-47.46
-61.26
-74.56
-86.92
-97.65
-105.64
-109.37
-107.35
-98.66
-83.30
-62.20
-36.83
-8.67
21.13
51.74
82.39
112.04
139.27
162.53
180.46
192.18
197.41
196.37
189.79
178.82
165.10
150.58
137.22
126.47
118.85
113.80
109.90
105.42
98.87
89.42
76.94
61.97
45.36
28.01
10.68
-6.20
-22.37
-37.59
-51.30
-62.47
-69.82
-72.35
-70.15
-64.73
-58.91
-55.89
-58.06
-66.30
-79.74
-96.49
-114.35
-131.36
-145.77
-155.84
-159.67
-155.60
-142.98
-122.85
-97.95
-72.14
-49.31
-32.38
-22.65
-19.82
-22.36
-28.17
-35.07
-41.21
-45.25
-46.34
-44.11
-38.68
-30.77
-21.64
-13.06
-6.87
-4.47
-6.34
-11.66
-18.50
-24.43
-27.44
-26.59
-22.14
-15.19
-6.92
2.00
11.51
21.73
32.31
42.16
49.66
53.58
53.97
52.41
51.44
53.47
59.77
70.08
82.98
96.37
108.01
115.62
117.01
110.46
95.16
71.68
41.94
8.63
-25.58
-58.72
-89.56
-117.18
-140.33
-157.18
-165.68
-164.43
-153.61
-135.28
-112.81
-89.59
-67.90
-48.34
-30.31
-13.15
2.77
15.85
23.99
25.98
22.32
15.14
7.15
0.29
-5.00
-9.71
-15.56
-24.26
-37.03
-54.34
-75.58
-98.52
-119.20
-132.72
-135.09
-125.27
-106.27
-84.13
-65.42
-54.15
-50.16
-49.87
-48.90
-44.79
-38.36
-32.78
-31.20
-34.54
-40.77
-45.94
-46.39
-40.39
-28.70
-13.69
1.97
16.41
28.97
39.85
49.46
57.85
64.62
69.11
70.85
69.97
67.25
63.94
61.25
59.88
59.70
59.92
59.40
57.29
53.38
48.19
42.63
37.53
33.16
29.16
24.75
19.11
11.70
2.42
-8.42
-20.30
-32.62
-44.79
-56.34
-66.91
-76.33
-84.70
-92.32
-99.60
-106.89
-114.42
-122.14
-129.83
-137.06
-143.28
-147.87
-150.28
-150.25
-147.80
-143.23
-136.90
-129.04
-119.73
-109.03
-97.07
-83.94
-69.39
-52.52
-31.84
-5.72
26.97
66.21
110.66
157.85
204.55
247.23
282.44
307.18
319.37
318.41
305.45
283.27
255.56
225.89
197.03
170.56
147.02
126.12
107.09
88.94
70.79
52.27
33.60
15.38
-1.99
-18.62
-35.08
-51.84
-68.68
-84.55
-98.13
-108.92
-117.87
-127.10
-138.63
-152.83
-167.67
-179.35
-184.09
-180.09
-168.45
-152.66
-136.95
-124.51
-116.52
-112.43
-110.75
-109.91
-108.34
-104.04
-94.31
-76.13
-47.54
-8.94
36.36
83.12
126.25
162.83
192.99
219.20
244.39
269.94
294.72
315.63
329.30
333.89
329.91
319.84
306.44
291.28
274.02
253.16
227.40
196.97
163.78
130.43
98.79
68.97
39.74
9.88
-20.39
-48.85
-72.02
-86.77
-91.70
-87.75
-77.53
-64.37
-51.18
-39.98
-31.80
-26.99
-25.45
-26.86
-30.82
-36.89
-44.55
-53.20
-62.18
-70.89
-79.03
-86.67
-94.17
-101.81
-109.45
-116.43
-121.86
-125.15
-126.50
-126.94
-127.95
-130.79
-135.99
-143.21
-151.61
-160.25
-168.52
-176.04
-182.62
-188.03
-192.02
-194.28
-194.44
-191.88
-185.62
-174.34
-156.72
-132.01
-100.40
-63.05
-21.58
22.68
69.15
117.91
168.70
219.84
267.50
306.17
329.94
334.22
317.13
280.14
227.75
166.55
103.83
46.11
-2.09
-39.02
-65.74
-85.30
-101.38
-116.86
-132.88
-148.76
-162.62
-172.38
-176.73
-175.53
-169.70
-160.64
-149.56
-136.74
-121.38
-101.88
-76.57
-44.14
-3.98
43.76
98.00
156.24
214.04
265.13
302.28
319.33
313.30
285.64
242.07
190.82
140.14
96.14
61.74
36.81
19.28
6.37
-4.38
-14.62
-25.16
-36.11
-47.14
-57.73
-67.31
-75.29
-81.24
-84.96
-86.66
-86.91
-86.59
-86.54
-87.33
-89.07
-91.37
-93.59
-95.17
-95.93
-96.17
-96.69
-98.31
-101.52
-105.95
-110.30
-112.56
-110.59
-102.89
-89.13
-70.32
-48.49
-25.94
-4.57
14.54
31.07
45.15
56.93
66.37
73.31
77.72
79.89
80.40
79.92
78.93
77.58
75.68
73.00
69.41
65.04
60.22
55.33
50.69
46.46
42.74
39.59
37.07
35.12
33.50
31.79
29.50
26.21
21.78
16.35
10.37
4.39
-1.00
-5.43
-8.74
-11.09
-12.95
-15.03
-18.07
-22.48
-28.14
-34.20
-39.22
-41.56
-39.92
-33.81
-23.68
-10.74
3.48
17.52
30.32
41.24
49.94
56.20
59.86
60.85
59.33
55.77
50.95
45.76
41.03
37.30
34.76
33.29
32.62
32.50
32.78
33.37
34.20
35.05
35.57
35.37
34.21
32.08
29.26
26.16
23.15
20.40
17.86
15.34
12.61
9.63
6.49
3.42
0.63
-1.79
-3.89
-5.88
-7.94
-10.27
-12.94
-15.89
-19.01
-22.12
-25.06
-27.76
-30.32
-32.99
-36.15
-40.16
-45.18
-50.91
-56.56
-60.89
-62.59
-60.59
-54.47
-44.61
-32.11
-18.48
-5.19
6.59
16.28
23.75
29.15
32.74
34.70
35.16
34.33
32.50
30.15
27.85
26.06
25.08
24.88
25.27
25.94
26.63
27.23
27.67
27.99
28.13
27.97
27.34
26.13
24.35
22.12
19.62
17.05
14.52
12.08
9.71
7.41
5.13
2.81
0.33
-2.37
-5.30
-8.36
-11.39
-14.25
-16.92
-19.50
-22.20
-25.21
-28.66
-32.54
-36.74
-40.90
-44.43
-46.53
-46.36
-43.29
-37.19
-28.57
-18.44
-8.09
1.35
9.11
14.86
18.62
20.59
21.01
20.15
18.34
15.98
13.53
11.39
9.85
8.97
8.69
8.80
9.13
9.52
9.88
10.14
10.21
10.01
9.50
8.64
7.50
6.19
4.78
3.32
1.73
-0.09
-2.30
-4.93
-7.91
-11.05
-14.11
-16.90
-19.36
-21.60
-23.82
-26.30
-29.27
-32.78
-36.57
-40.04
-42.34
-42.52
-39.96
-34.52
-26.75
-17.62
-8.27
0.36
7.66
13.35
17.39
19.75
20.48
19.63
17.46
14.42
11.08
8.05
5.78
4.47
3.99
4.02
4.15
4.17
4.05
3.94
4.05
4.38
4.73
4.70
3.92
2.23
-0.22
-3.11
-6.03
-8.76
-11.26
-13.59
-15.88
-18.21
-20.69
-23.49
-26.79
-30.74
-35.21
-39.67
-43.23
-44.89
-43.81
-39.72
-32.97
-24.43
-15.22
-6.35
1.46
7.89
12.86
16.41
18.64
19.54
19.21
17.80
15.63
13.13
10.76
8.91
7.80
7.43
7.58
7.94
8.21
8.23
7.97
7.49
6.88
6.17
5.28
4.07
2.42
0.31
-2.23
-5.05
-8.01
-10.95
-13.78
-16.44
-18.92
-21.35
-23.95
-27.00
-30.75
-35.21
-40.06
-44.55
-47.73
-48.63
-46.62
-41.60
-34.01
-24.74
-14.80
-5.11
3.65
11.08
16.96
21.24
23.93
25.14
25.16
24.36
23.21
22.05
21.08
20.29
19.53
18.63
17.54
16.39
15.38
14.75
14.57
14.73
14.94
14.85
14.21
12.92
11.13
9.05
6.90
4.75
2.51
0.01
-2.93
-6.31
-9.98
-13.67
-17.13
-20.26
-23.10
-25.89
-28.93
-32.48
-36.71
-41.58
-46.77
-51.63
-55.21
-56.49
-54.65
-49.35
-40.94
-30.34
-18.81
-7.55
2.53
10.98
17.70
22.76
26.28
28.38
29.19
28.96
27.98
26.58
25.07
23.66
22.47
21.54
20.94
20.70
20.83
21.33
22.10
22.96
23.71
24.15
24.14
23.59
22.56
21.17
19.51
17.64
15.55
13.21
10.61
7.82
4.97
2.19
-0.47
-3.06
-5.70
-8.57
-11.74
-15.22
-18.85
-22.43
-25.79
-28.88
-31.80
-34.87
-38.50
-42.97
-48.34
-54.25
-59.93
-64.32
-66.27
-64.91
-59.85
-51.37
-40.33
-27.99
-15.58
-4.10
5.87
14.09
20.54
25.29
28.39
29.97
30.27
29.67
28.62
27.50
26.57
25.89
25.47
25.25
25.28
25.61
26.31
27.32
28.50
29.60
30.32
30.48
29.98
28.89
27.40
25.70
23.90
22.00
19.94
17.63
15.04
12.20
9.22
6.18
3.14
0.02
-3.24
-6.74
-10.44
-14.22
-17.88
-21.22
-24.12
-26.64
-28.98
-31.47
-34.51
-38.41
-43.33
-49.13
-55.30
-60.90
-64.71
-65.50
-62.41
-55.25
-44.61
-31.73
-18.14
-5.22
6.08
15.35
22.57
27.94
31.65
33.90
34.86
34.78
33.93
32.61
31.04
29.38
27.76
26.27
25.08
24.34
24.16
24.52
25.29
26.26
27.20
27.90
28.20
27.97
27.13
25.63
23.58
21.16
18.60
16.13
13.80
11.53
9.14
6.38
3.12
-0.68
-4.89
-9.29
-13.64
-17.74
-21.49
-24.86
-27.99
-31.10
-34.49
-38.50
-43.35
-48.93
-54.72
-59.75
-62.82
-62.84
-59.13
-51.70
-41.20
-28.76
-15.68
-3.13
7.99
17.15
24.11
28.87
31.58
32.51
31.99
30.46
28.37
26.14
24.09
22.42
21.18
20.37
19.97
20.01
20.52
21.49
22.79
24.16
25.28
25.80
25.47
24.22
22.15
19.56
16.83
14.29
12.06
10.02
7.81
5.07
1.58
-2.61
-7.19
-11.78
-16.06
-19.95
-23.53
-27.05
-30.74
-34.84
-39.53
-44.79
-50.39
-55.68
-59.65
-61.12
-59.11
-53.18
-43.65
-31.56
-18.34
-5.41
6.16
15.78
23.26
28.64
32.03
33.56
33.42
31.94
29.54
26.73
23.92
21.41
19.33
17.69
16.52
15.82
15.59
15.78
16.23
16.70
16.93
16.70
15.90
14.57
12.81
10.78
8.55
6.12
3.43
0.38
-3.10
-6.97
-11.13
-15.43
-19.71
-23.91
-28.04
-32.23
-36.75
-41.87
-47.72
-54.09
-60.29
-65.15
-67.30
-65.57
-59.43
-49.24
-36.14
-21.71
-7.51
5.29
16.09
24.71
31.17
35.52
37.75
37.90
36.12
32.86
28.74
24.53
20.84
18.07
16.26
15.21
14.57
14.04
13.49
12.97
12.65
12.65
12.87
13.02
12.61
11.19
8.47
4.51
-0.35
-5.62
-10.77
-15.52
-19.85
-24.01
-28.42
-33.53
-39.70
-47.03
-55.23
-63.52
-70.72
-75.35
-76.07
-71.99
-63.01
-49.87
-33.98
-17.06
-0.70
13.93
26.12
35.58
42.22
46.08
47.32
46.28
43.49
39.70
35.62
31.86
28.74
26.28
24.33
22.69
21.24
19.93
18.82
17.95
17.30
16.64
15.61
13.79
10.84
6.69
1.56
-4.10
-9.80
-15.23
-20.37
-25.54
-31.24
-37.99
-46.10
-55.53
-65.68
-75.37
-82.94
-86.62
-84.97
-77.35
-64.14
-46.69
-26.98
-7.02
11.48
27.40
40.20
49.77
56.28
60.03
61.38
60.77
58.72
55.73
52.38
49.14
46.34
44.10
42.34
40.89
39.54
38.19
36.85
35.59
34.43
33.31
31.98
30.09
27.25
23.19
17.82
11.29
3.98
-3.64
-11.10
-18.10
-24.60
-30.85
-37.34
-44.64
-53.24
-63.24
-74.12
-84.60
-92.82
-96.68
-94.52
-85.60
-70.40
-50.49
-28.10
-5.46
15.63
34.04
49.21
60.94
69.26
74.33
76.47
76.22
74.28
71.38
68.16
65.02
62.22
59.91
58.19
57.18
56.93
57.35
58.17
59.01
59.49
59.34
58.44
56.78
54.35
51.17
47.19
42.48
37.15
31.48
25.73
20.12
14.74
9.46
4.11
-1.54
-7.65
-14.24
-21.20
-28.32
-35.28
-41.83
-47.80
-53.18
-58.20
-63.31
-69.14
-76.33
-85.23
-95.54
-106.13
-115.04
-119.95
-118.80
-110.49
-95.26
-74.58
-50.68
-25.92
-2.24
19.01
37.05
51.45
62.08
69.06
72.79
73.89
73.15
71.32
69.03
66.72
64.59
62.77
61.32
60.32
59.83
59.89
60.51
61.55
62.74
63.69
63.94
63.15
61.17
58.14
54.36
50.21
45.90
41.50
36.85
31.76
26.14
20.08
13.88
7.91
2.42
-2.51
-7.07
-11.60
-16.46
-21.85
-27.72
-33.82
-39.78
-45.30
-50.24
-54.79
-59.36
-64.58
-71.10
-79.27
-88.93
-99.14
-108.19
-113.88
-114.15
-107.66
-94.31
-75.26
-52.65
-28.93
-6.27
13.85
30.65
43.93
53.75
60.33
63.99
65.22
64.65
62.98
60.83
58.69
56.82
55.35
54.29
53.68
53.56
53.97
54.91
56.25
57.69
58.79
59.13
58.41
56.55
53.74
50.32
46.61
42.77
38.81
34.58
29.92
24.83
19.44
14.03
8.87
4.19
-0.01
-3.91
-7.83
-12.14
-17.04
-22.54
-28.42
-34.30
-39.83
-44.82
-49.33
-53.65
-58.29
-63.79
-70.47
-78.19
-86.10
-92.67
-96.01
-94.43
-87.04
-74.07
-56.79
-37.12
-17.02
1.93
18.67
32.58
43.27
50.55
54.42
55.19
53.52
50.31
46.48
42.83
39.84
37.74
36.53
36.08
36.22
36.73
37.44
38.17
38.78
39.16
39.25
39.00
38.38
37.33
35.84
33.87
31.42
28.50
25.19
21.58
17.75
13.75
9.59
5.26
0.79
-3.80
-8.40
-12.92
-17.33
-21.58
-25.67
-29.56
-33.20
-36.58
-39.83
-43.21
-47.13
-51.95
-57.80
-64.30
-70.45
-74.79
-75.77
-72.21
-63.78
-51.09
-35.58
-19.00
-2.99
11.24
23.03
32.12
38.40
41.88
42.63
41.00
37.56
33.18
28.77
25.06
22.40
20.74
19.76
19.08
18.51
18.11
18.09
18.59
19.57
20.72
21.59
21.76
21.05
19.45
17.18
14.51
11.66
8.77
5.87
2.87
-0.41
-4.13
-8.36
-13.02
-17.91
-22.69
-27.12
-31.07
-34.65
-38.19
-42.14
-46.92
-52.73
-59.34
-65.98
-71.42
-74.19
-73.01
-67.22
-56.98
-43.34
-27.86
-12.25
2.04
14.12
23.58
30.37
34.62
36.50
36.22
34.12
30.72
26.66
22.60
19.05
16.27
14.33
13.11
12.47
12.25
12.33
12.56
12.76
12.76
12.44
11.66
10.34
8.36
5.61
2.07
-2.17
-6.89
-11.81
-16.71
-21.42
-25.94
-30.30
-34.65
-39.23
-44.35
-50.32
-57.15
-64.34
-70.77
-74.89
-75.13
-70.50
-60.95
-47.46
-31.65
-15.34
-0.07
13.18
23.92
32.03
37.57
40.68
41.53
40.40
37.72
34.05
30.03
26.27
23.18
20.97
19.56
18.71
18.10
17.51
16.84
16.09
15.30
14.47
13.47
12.06
9.95
6.93
2.97
-1.72
-6.80
-11.84
-16.59
-21.03
-25.34
-29.85
-34.90
-40.77
-47.59
-55.26
-63.39
-71.13
-77.23
-80.21
-78.80
-72.28
-60.93
-45.90
-28.95
-11.90
3.76
17.16
27.95
36.15
41.92
45.44
46.91
46.65
45.09
42.75
40.14
37.70
35.64
34.02
32.79
31.85
31.23
30.99
31.18
31.74
32.41
32.73
32.25
30.62
27.85
24.19
20.08
15.93
11.91
7.95
3.78
-0.88
-6.16
-11.96
-18.03
-24.06
-29.84
-35.26
-40.44
-45.65
-51.29
-57.73
-65.15
-73.30
-81.30
-87.76
-90.99
-89.52
-82.59
-70.45
-54.34
-36.07
-17.57
-0.40
14.46
26.60
36.01
42.83
47.28
49.60
50.10
49.22
47.48
45.44
43.62
42.34
41.76
41.81
42.31
43.07
43.92
44.75
45.53
46.16
46.51
46.37
45.57
44.05
41.88
39.21
36.16
32.76
28.91
24.55
19.70
14.57
9.46
4.53
-0.21
-5.01
-10.14
-15.73
-21.66
-27.56
-33.07
-37.97
-42.33
-46.46
-50.82
-55.89
-62.05
-69.43
-77.75
-86.13
-93.12
-96.91
-95.84
-88.95
-76.43
-59.53
-40.28
-20.83
-2.88
12.55
25.15
35.00
42.32
47.31
50.10
50.96
50.31
48.77
47.00
45.56
44.71
44.47
44.64
45.03
45.54
46.17
47.00
47.99
48.96
49.58
49.49
48.44
46.43
43.68
40.54
37.35
34.26
31.25
28.09
24.54
20.46
15.93
11.20
6.61
2.43
-1.29
-4.74
-8.24
-12.11
-16.47
-21.23
-26.12
-30.82
-35.16
-39.15
-43.05
-47.28
-52.29
-58.48
-65.95
-74.33
-82.61
-89.26
-92.53
-90.95
-83.84
-71.56
-55.45
-37.34
-19.11
-2.18
12.54
24.67
34.12
40.96
45.32
47.41
47.61
46.39
44.34
42.04
40.01
38.61
37.96
37.96
38.45
39.22
40.17
41.32
42.65
44.07
45.29
45.96
45.75
44.54
42.44
39.78
36.92
34.15
31.55
29.06
26.47
23.56
20.21
16.42
12.40
8.39
4.68
1.37
-1.62
-4.57
-7.81
-11.57
-15.87
-20.48
-25.01
-29.11
-32.60
-35.58
-38.39
-41.45
-45.22
-50.05
-56.04
-62.97
-70.08
-76.15
-79.62
-79.02
-73.48
-63.08
-48.87
-32.60
-16.11
-0.89
12.16
22.68
30.59
35.92
38.73
39.19
37.74
35.09
32.04
29.30
27.32
26.18
25.73
25.72
26.01
26.63
27.66
29.17
31.04
32.98
34.56
35.39
35.26
34.17
32.34
30.05
27.55
24.97
22.31
19.48
16.39
13.02
9.46
5.85
2.37
-0.84
-3.74
-6.43
-9.09
-11.94
-15.15
-18.77
-22.66
-26.56
-30.17
-33.31
-35.99
-38.50
-41.34
-45.05
-49.96
-55.97
-62.39
-67.96
-71.19
-70.71
-65.75
-56.39
-43.56
-28.72
-13.52
0.67
12.90
22.68
29.85
34.46
36.67
36.80
35.29
32.69
29.60
26.57
24.05
22.26
21.26
20.93
21.07
21.47
21.99
22.57
23.17
23.78
24.30
24.58
24.44
23.77
22.52
20.73
18.48
15.89
13.06
10.07
7.02
3.92
0.71
-2.73
-6.52
-10.64
-14.98
-19.28
-23.32
-26.99
-30.33
-33.47
-36.57
-39.75
-43.16
-47.02
-51.60
-56.94
-62.65
-67.77
-70.85
-70.48
-65.77
-56.73
-44.27
-29.89
-15.15
-1.30
10.84
20.87
28.56
33.78
36.51
36.91
35.41
32.69
29.52
26.55
24.21
22.65
21.78
21.38
21.24
21.28
21.51
22.02
22.85
23.94
25.08
25.92
26.10
25.36
23.59
20.95
17.75
14.34
11.00
7.84
4.79
1.64
-1.85
-5.81
-10.28
-15.10
-20.04
-24.82
-29.23
-33.23
-36.94
-40.64
-44.71
-49.52
-55.29
-61.89
-68.71
-74.63
-78.21
-78.11
-73.46
-64.21
-51.16
-35.74
-19.61
-4.26
9.22
20.23
28.51
34.09
37.15
38.02
37.17
35.17
32.66
30.19
28.09
26.41
25.04
23.81
22.73
21.97
21.84
22.52
23.90
25.52
26.72
26.96
25.99
23.97
21.30
18.36
15.38
12.34
9.04
5.28
0.94
-3.94
-9.21
-14.68
-20.15
-25.49
-30.58
-35.44
-40.23
-45.26
-50.92
-57.52
-64.97
-72.59
-79.10
-82.88
-82.47
-77.07
-66.81
-52.72
-36.36
-19.34
-3.01
11.70
24.25
34.29
41.63
46.25
48.33
48.30
46.78
44.44
41.88
39.52
37.59
36.13
35.09
34.39
33.97
33.79
33.89
34.22
34.69
35.02
34.87
33.90
31.91
28.93
25.22
21.14
17.04
13.05
9.09
4.93
0.31
-4.92
-10.74
-16.92
-23.17
-29.18
-34.78
-39.96
-44.96
-50.20
-56.19
-63.31
-71.51
-80.13
-87.89
-93.13
-94.24
-90.14
-80.63
-66.49
-49.16
-30.45
-12.05
4.77
19.23
31.04
40.17
46.77
51.07
53.31
53.81
52.93
51.14
48.94
46.84
45.22
44.30
44.07
44.36
44.90
45.48
45.99
46.37
46.58
46.52
45.95
44.67
42.53
39.48
35.64
31.24
26.50
21.63
16.75
11.89
7.03
2.08
-3.08
-8.50
-14.17
-19.98
-25.75
-31.30
-36.57
-41.63
-46.66
-51.98
-57.92
-64.80
-72.69
-81.25
-89.58
-96.23
-99.50
-97.94
-90.82
-78.42
-61.97
-43.25
-24.10
-6.03
9.99
23.45
34.18
42.14
47.45
50.37
51.35
50.99
49.93
48.73
47.78
47.27
47.18
47.44
47.92
48.56
49.36
50.31
51.33
52.23
52.71
52.46
51.27
49.13
46.21
42.80
39.15
35.41
31.56
27.53
23.21
18.60
13.82
9.03
4.37
-0.13
-4.58
-9.12
-13.90
-18.90
-23.97
-28.85
-33.31
-37.28
-40.90
-44.55
-48.72
-53.92
-60.50
-68.51
-77.48
-86.32
-93.44
-97.01
-95.48
-88.10
-75.20
-58.15
-38.90
-19.46
-1.45
14.15
26.90
36.76
43.86
48.41
50.69
51.07
50.04
48.14
45.95
43.94
42.48
41.74
41.72
42.36
43.55
45.13
46.95
48.75
50.19
50.96
50.77
49.57
47.50
44.83
41.89
38.87
35.83
32.66
29.23
25.44
21.30
16.96
12.59
8.31
4.11
-0.16
-4.65
-9.40
-14.28
-19.08
-23.58
-27.72
-31.58
-35.33
-39.20
-43.42
-48.25
-53.96
-60.65
-67.94
-74.84
-79.81
-81.06
-77.27
-68.06
-54.21
-37.43
-19.74
-2.92
11.87
24.13
33.74
40.69
44.98
46.65
46.00
43.63
40.41
37.26
34.87
33.60
33.38
33.97
35.06
36.44
37.96
39.54
41.03
42.19
42.77
42.56
41.46
39.50
36.84
33.64
30.06
26.19
22.09
17.85
13.53
9.27
5.15
1.21
-2.68
-6.71
-11.06
-15.79
-20.77
-25.72
-30.34
-34.50
-38.27
-41.96
-46.00
-50.80
-56.68
-63.65
-71.31
-78.75
-84.56
-87.14
-85.17
-77.99
-65.96
-50.29
-32.74
-15.12
1.15
15.16
26.46
34.95
40.73
44.03
45.22
44.78
43.26
41.17
39.00
37.13
35.81
35.13
35.03
35.39
36.03
36.84
37.76
38.72
39.60
40.19
40.18
39.30
37.41
34.51
30.78
26.53
22.07
17.73
13.72
10.09
6.72
3.31
-0.51
-5.01
-10.19
-15.80
-21.36
-26.47
-30.94
-34.86
-38.57
-42.53
-47.17
-52.76
-59.44
-67.00
-74.81
-81.78
-86.49
-87.49
-83.78
-75.12
-62.20
-46.42
-29.48
-12.93
2.09
14.92
25.29
33.12
38.44
41.37
42.18
41.33
39.46
37.23
35.20
33.73
32.93
32.71
32.91
33.42
34.21
35.25
36.46
37.69
38.69
39.20
39.00
37.99
36.15
33.52
30.17
26.25
21.96
17.55
13.30
9.38
5.82
2.46
-1.00
-4.84
-9.18
-13.93
-18.76
-23.30
-27.31
-30.78
-33.93
-37.21
-41.09
-46.01
-52.20
-59.50
-67.26
-74.26
-78.94
-79.75
-75.65
-66.49
-53.12
-37.14
-20.39
-4.51
9.40
20.74
29.36
35.32
38.84
40.27
40.06
38.78
36.95
35.02
33.28
31.88
30.91
30.42
30.43
30.94
31.89
33.15
34.57
35.95
37.12
37.85
37.95
37.25
35.65
33.19
30.05
26.46
22.74
19.11
15.68
12.47
9.37
6.22
2.86
-0.81
-4.78
-8.92
-13.03
-16.89
-20.37
-23.50
-26.44
-29.50
-33.03
-37.34
-42.57
-48.48
-54.44
-59.33
-61.82
-60.72
-55.42
-46.07
-33.65
-19.62
-5.50
7.45
18.43
27.08
33.29
37.11
38.67
38.21
36.17
33.16
29.88
26.98
24.92
23.89
23.74
24.17
24.82
25.43
25.91
26.27
26.61
26.91
27.12
27.07
26.59
25.58
24.03
22.04
19.72
17.16
14.44
11.56
8.54
5.41
2.26
-0.87
-3.96
-7.03
-10.13
-13.24
-16.33
-19.33
-22.21
-25.04
-27.95
-31.13
-34.78
-39.05
-43.89
-49.04
-53.86
-57.37
-58.45
-56.18
-50.17
-40.80
-29.13
-16.57
-4.51
6.07
14.64
21.09
25.56
28.22
29.28
28.96
27.56
25.48
23.14
20.98
19.32
18.30
17.90
17.89
18.03
18.18
18.29
18.50
18.89
19.46
20.02
20.29
19.99
19.00
17.40
15.38
13.15
10.80
8.37
5.82
3.24
0.73
-1.54
-3.47
-5.08
-6.56
-8.17
-10.11
-12.46
-15.12
-17.93
-20.71
-23.38
-25.98
-28.63
-31.49
-34.69
-38.27
-42.07
-45.68
-48.42
-49.43
-47.90
-43.37
-35.93
-26.30
-15.62
-5.12
4.18
11.62
17.04
20.51
22.30
22.71
22.05
20.64
18.79
16.79
14.89
13.31
12.12
11.33
10.89
10.74
10.84
11.17
11.73
12.45
13.20
13.73
13.77
13.13
11.76
9.86
7.73
5.71
4.04
2.77
1.78
0.86
-0.18
-1.46
-3.01
-4.78
-6.76
-8.89
-11.12
-13.37
-15.51
-17.48
-19.21
-20.81
-22.42
-24.28
-26.57
-29.41
-32.74
-36.22
-39.24
-40.98
-40.65
-37.72
-32.17
-24.51
-15.68
-6.74
1.39
8.11
13.17
16.54
18.35
18.72
17.82
15.95
13.47
10.85
8.53
6.86
5.96
5.80
6.17
6.85
7.65
8.45
9.26
10.05
10.81
11.41
11.69
11.47
10.68
9.36
7.72
6.02
4.45
3.12
1.90
0.63
-0.88
-2.73
-4.84
-7.07
-9.20
-11.05
-12.46
-13.38
-13.94
-14.42
-15.22
-16.74
-19.24
-22.72
-26.91
-31.33
-35.39
-38.47
-40.00
-39.50
-36.71
-31.63
-24.65
-16.52
-8.19
-0.63
5.46
9.75
12.29
13.38
13.36
12.55
11.16
9.41
7.52
5.77
4.44
3.74
3.68
4.14
4.89
5.72
6.52
7.26
7.97
8.60
9.04
9.15
8.77
7.83
6.41
4.66
2.81
1.05
-0.50
-1.89
-3.25
-4.73
-6.46
-8.47
-10.69
-13.01
-15.28
-17.43
-19.42
-21.28
-23.07
-24.95
-27.15
-29.87
-33.19
-36.89
-40.43
-42.98
-43.70
-41.98
-37.77
-31.51
-24.00
-16.13
-8.59
-1.78
4.06
8.82
12.34
14.48
15.25
14.87
13.78
12.46
11.32
10.53
10.09
9.93
9.95
10.16
10.54
11.04
11.58
12.06
12.39
12.57
12.61
12.50
12.14
11.48
10.44
9.09
7.55
6.01
4.53
3.06
1.46
-0.50
-2.90
-5.71
-8.69
-11.57
-14.07
-16.09
-17.74
-19.28
-21.08
-23.41
-26.46
-30.24
-34.54
-38.97
-42.88
-45.47
-45.96
-43.83
-39.02
-32.02
-23.73
-15.13
-7.07
-0.01
5.84
10.46
13.85
16.01
17.00
17.03
16.47
15.72
15.10
14.77
14.69
14.74
14.80
14.88
15.05
15.43
16.10
17.04
18.12
19.12
19.79
19.93
19.40
18.20
16.42
14.27
11.99
9.78
7.73
5.81
3.90
1.83
-0.52
-3.19
-6.09
-9.05
-11.90
-14.51
-16.88
-19.10
-21.41
-24.07
-27.36
-31.36
-35.88
-40.33
-43.83
-45.35
-44.09
-39.79
-32.77
-23.92
-14.34
-5.05
3.20
10.00
15.21
18.80
20.84
21.52
21.17
20.26
19.26
18.49
18.12
18.08
18.24
18.44
18.62
18.78
19.03
19.48
20.19
21.11
22.04
22.67
22.69
21.89
20.28
18.08
15.69
13.45
11.57
10.02
8.59
6.97
4.95
2.46
-0.39
-3.37
-6.25
-8.87
-11.25
-13.50
-15.84
-18.49
-21.65
-25.35
-29.51
-33.79
-37.59
-40.08
-40.42
-38.01
-32.73
-25.09
-16.01
-6.59
2.23
9.92
16.21
21.10
24.58
26.63
27.27
26.69
25.21
23.30
21.44
19.99
19.08
18.69
18.67
18.89
19.24
19.71
20.32
21.07
21.81
22.30
22.28
21.60
20.25
18.45
16.47
14.49
12.55
10.49
8.13
5.36
2.22
-1.08
-4.33
-7.36
-10.15
-12.80
-15.47
-18.35
-21.59
-25.38
-29.78
-34.71
-39.78
-44.33
-47.41
-48.13
-45.93
-40.73
-33.02
-23.65
-13.65
-3.93
4.83
12.26
18.16
22.52
25.38
26.83
27.05
26.31
25.01
23.59
22.48
21.96
22.05
22.60
23.32
23.96
24.42
24.75
25.03
25.31
25.48
25.29
24.52
23.03
20.90
18.40
15.86
13.54
11.49
9.52
7.32
4.59
1.29
-2.40
-6.12
-9.53
-12.48
-15.04
-17.52
-20.29
-23.69
-27.87
-32.77
-38.10
-43.30
-47.61
-50.14
-50.10
-47.02
-40.97
-32.50
-22.55
-12.19
-2.34
6.38
13.66
19.41
23.66
26.49
27.97
28.31
27.81
26.88
25.95
25.37
25.28
25.62
26.22
26.84
27.35
27.73
28.05
28.36
28.70
28.95
28.97
28.63
27.83
26.58
24.91
22.91
20.68
18.30
15.83
13.31
10.67
7.86
4.82
1.54
-1.90
-5.39
-8.74
-11.79
-14.47
-16.80
-18.88
-20.96
-23.31
-26.25
-30.01
-34.65
-39.94
-45.31
-49.94
-52.86
-53.23
-50.53
-44.72
-36.28
-26.07
-15.17
-4.57
4.97
12.98
19.29
23.89
26.90
28.46
28.78
28.19
27.05
25.77
24.68
23.95
23.65
23.71
24.09
24.76
25.70
26.82
27.99
29.01
29.66
29.84
29.52
28.74
27.54
25.92
23.89
21.49
18.85
16.18
13.67
11.44
9.50
7.74
5.97
4.01
1.76
-0.83
-3.67
-6.62
-9.49
-12.14
-14.54
-16.79
-19.11
-21.78
-25.06
-29.07
-33.70
-38.57
-43.01
-46.12
-47.00
-44.93
-39.66
-31.54
-21.44
-10.58
-0.15
8.92
16.21
21.63
25.35
27.57
28.45
28.15
26.89
25.03
23.08
21.50
20.58
20.39
20.76
21.40
22.10
22.75
23.38
24.05
24.79
25.49
25.97
26.05
25.59
24.59
23.12
21.31
19.23
16.93
14.43
11.75
9.02
6.38
3.96
1.81
-0.18
-2.16
-4.32
-6.74
-9.40
-12.16
-14.90
-17.54
-20.08
-22.64
-25.41
-28.61
-32.41
-36.82
-41.59
-46.12
-49.53
-50.88
-49.42
-44.85
-37.45
-28.06
-17.77
-7.69
1.32
8.77
14.50
18.57
21.21
22.65
23.14
22.91
22.22
21.29
20.33
19.53
19.01
18.85
19.09
19.71
20.63
21.77
22.98
24.07
24.83
25.09
24.78
23.94
22.66
21.07
19.24
17.23
15.06
12.78
10.47
8.26
6.24
4.44
2.78
1.14
-0.67
-2.79
-5.24
-7.92
-10.61
-13.13
-15.31
-17.19
-18.93
-20.78
-23.00
-25.85
-29.47
-33.85
-38.70
-43.44
-47.16
-48.87
-47.71
-43.38
-36.23
-27.21
-17.53
-8.29
-0.23
6.36
11.49
15.27
17.84
19.30
19.80
19.54
18.84
18.02
17.31
16.86
16.68
16.75
17.02
17.47
18.12
18.95
19.96
21.00
21.89
22.43
22.42
21.80
20.57
18.84
16.78
14.59
12.44
10.39
8.48
6.64
4.79
2.85
0.82
-1.29
-3.42
-5.51
-7.55
-9.53
-11.49
-13.48
-15.53
-17.66
-19.88
-22.29
-24.99
-28.07
-31.40
-34.57
-36.85
-37.42
-35.64
-31.32
-24.86
-17.09
-9.02
-1.50
4.93
10.05
13.84
16.27
17.39
17.26
16.12
14.33
12.33
10.55
9.23
8.48
8.26
8.48
9.04
9.87
10.90
12.03
13.13
14.03
14.58
14.71
14.34
13.50
12.22
10.59
8.73
6.79
4.89
3.07
1.28
-0.59
-2.61
-4.84
-7.22
-9.66
-12.04
-14.36
-16.69
-19.18
-22.02
-25.29
-28.97
-32.87
-36.58
