1538403748.00
64.000000
-0.00
-0.00
-0.00
-0.00
-0.00
-0.00
-0.00
-0.00
-0.00
-0.00
0.00
0.01
0.01
-0.00
-0.03
-0.05
-0.05
0.00
0.13
0.36
0.66
1.01
1.37
1.72
2.06
2.40
2.79
3.24
3.80
4.42
5.06
5.66
6.20
6.68
7.15
7.68
8.31
9.14
10.09
11.04
11.88
12.56
13.14
13.76
14.65
15.96
17.91
20.32
22.90
25.38
27.58
29.57
31.68
34.32
37.81
42.54
48.15
54.10
59.83
64.97
69.58
74.14
79.34
85.71
93.76
103.00
112.62
121.73
129.77
136.75
143.30
150.75
157.77
166.64
177.95
191.79
206.97
220.57
228.25
225.36
208.53
176.87
132.76
80.05
23.07
-34.94
-92.44
-149.16
-205.23
-260.37
-313.74
-363.87
-409.83
-450.91
-486.50
-515.74
-537.23
-549.22
-549.96
-538.37
-514.21
-478.67
-433.88
-382.45
-327.02
-269.84
-212.63
-156.66
-102.95
-52.37
-5.90
35.58
71.43
101.35
125.50
144.38
158.69
169.15
176.37
180.75
182.57
182.07
179.51
175.23
169.65
163.18
156.15
148.81
141.30
133.69
126.02
118.33
110.69
103.16
95.80
88.68
81.83
75.25
68.95
62.95
57.25
51.86
46.78
42.03
37.59
33.45
29.61
26.07
22.81
19.83
17.11
14.67
12.48
10.54
8.83
7.35
6.07
4.97
4.05
3.27
2.62
2.09
1.65
1.30
1.01
0.79
0.61
0.48
0.37
0.29
0.24
0.20
0.18
0.17
0.17
0.19
0.21
0.23
0.26
0.30
0.34
0.39
0.43
0.47
0.52
0.57
0.62
0.68
0.74
0.80
0.87
0.94
1.02
1.11
1.21
1.32
1.45
1.59
1.75
1.93
2.12
2.34
2.58
2.85
3.14
3.46
3.82
4.22
4.67
5.14
5.64
6.14
6.63
7.13
7.64
8.21
8.85
9.58
10.40
11.27
12.17
13.08
14.02
14.99
16.04
17.19
18.45
19.74
20.97
22.02
22.74
23.02
22.78
22.03
20.71
18.82
16.28
12.99
8.88
3.99
-1.46
-7.11
-12.51
-17.27
-21.14
-24.12
-26.41
-28.34
-30.16
-31.95
-33.51
-34.55
-34.79
-34.18
-32.99
-31.76
-31.10
-31.41
-32.69
-34.54
-36.36
-37.56
-37.84
-37.35
-36.53
-35.99
-36.37
-38.23
-41.86
-47.08
-52.76
-56.86
-56.77
-50.27
-36.58
-16.96
5.57
27.20
44.72
56.45
62.39
63.61
61.51
57.10
50.97
43.62
35.73
28.21
21.98
17.57
14.94
13.64
12.95
12.23
11.24
10.09
9.19
8.94
9.50
10.60
11.62
11.81
10.51
7.55
3.25
-1.62
-6.27
-10.13
-13.11
-15.52
-17.99
-21.10
-25.21
-30.36
-36.21
-42.11
-47.14
-50.15
-50.01
-45.86
-37.39
-25.07
-10.14
5.70
20.65
33.28
42.74
48.73
51.39
51.04
48.16
43.32
37.26
30.80
24.77
19.76
16.06
13.59
12.06
11.07
10.25
9.37
8.27
6.88
5.17
3.13
0.78
-1.90
-4.93
-8.35
-12.24
-16.65
-21.65
-27.27
-33.52
-40.21
-46.82
-52.45
-55.92
-56.07
-52.09
-43.92
-32.19
-18.16
-3.31
10.93
23.44
33.44
40.49
44.48
45.58
44.27
41.24
37.31
33.21
29.44
26.23
23.54
21.25
19.23
17.42
15.80
14.31
12.74
10.79
8.17
4.73
0.52
-4.15
-8.87
-13.26
-17.13
-20.49
-23.65
-27.11
-31.48
-37.24
-44.59
-53.13
-61.86
-69.26
-73.69
-73.74
-68.67
-58.58
-44.32
-27.31
-9.22
8.31
23.84
36.31
45.09
49.94
51.05
48.98
44.52
38.62
32.22
26.15
20.97
16.99
14.21
12.49
11.55
11.11
10.84
10.39
9.37
7.35
4.02
-0.72
-6.68
-13.45
-20.53
-27.52
-34.32
-41.10
-48.22
-56.07
-64.78
-74.06
-83.10
-90.61
-95.08
-95.09
-89.65
-78.58
-62.51
-42.81
-21.24
0.37
20.52
38.09
52.42
63.16
70.24
73.84
74.49
73.00
70.43
67.83
65.93
65.02
64.87
64.96
64.71
63.72
61.82
59.01
55.32
50.75
45.25
38.81
31.55
23.77
15.92
8.52
2.03
-3.31
-7.51
-10.98
-14.45
-18.82
-24.85
-32.84
-42.32
-52.04
-60.17
-64.82
-64.58
-58.89
-48.18
-33.66
-16.90
0.43
16.89
31.29
42.68
50.43
54.23
54.25
51.11
45.77
39.37
32.97
27.42
23.18
20.39
18.94
18.53
18.79
19.38
19.99
20.36
20.27
19.50
17.84
15.13
11.32
6.49
0.87
-5.21
-11.47
-17.69
-23.85
-30.11
-36.70
-43.69
-50.80
-57.18
-61.52
-62.31
-58.36
-49.29
-35.77
-19.44
-2.42
13.22
26.04
35.36
41.20
43.97
44.23
42.49
39.30
35.23
30.91
26.97
23.87
21.80
20.70
20.33
20.37
20.55
20.55
20.08
18.84
16.62
13.39
9.33
4.76
0.05
-4.56
-9.02
-13.47
-18.17
-23.45
-29.61
-36.77
-44.79
-53.08
-60.58
-65.87
-67.50
-64.32
-55.99
-43.02
-26.78
-9.16
7.89
22.76
34.37
42.29
46.59
47.70
46.25
42.99
38.66
33.96
29.49
25.65
22.63
20.45
18.99
18.06
17.48
17.05
16.56
15.75
14.31
12.04
8.84
4.81
0.19
-4.75
-9.84
-15.08
-20.64
-26.79
-33.68
-41.33
-49.38
-57.13
-63.50
-67.18
-66.91
-61.78
-51.65
-37.28
-20.25
-2.56
13.88
27.74
38.35
45.64
49.85
51.24
50.11
46.85
42.02
36.44
30.94
26.21
22.64
20.25
18.84
18.09
17.69
17.30
16.60
15.28
13.16
10.21
6.54
2.36
-2.20
-7.11
-12.43
-18.26
-24.68
-31.72
-39.37
-47.47
-55.55
-62.68
-67.54
-68.65
-64.95
-56.18
-43.05
-27.06
-9.99
6.57
21.43
33.84
43.30
49.47
52.21
51.77
48.77
44.16
38.90
33.73
29.10
25.21
22.15
19.99
18.75
18.27
18.17
17.91
16.99
15.06
12.10
8.34
4.12
-0.27
-4.67
-9.12
-13.80
-19.00
-25.02
-32.04
-40.04
-48.52
-56.52
-62.64
-65.38
-63.51
-56.53
-44.87
-29.78
-13.04
3.48
18.23
30.16
38.75
43.90
45.80
44.80
41.46
36.41
30.38
24.10
18.22
13.28
9.51
6.94
5.29
4.21
3.29
2.25
1.00
-0.45
-2.04
-3.81
-5.88
-8.42
-11.50
-15.10
-19.17
-23.66
-28.64
-34.12
-39.84
-45.11
-48.88
-49.90
-47.17
-40.26
-29.53
-16.04
-1.31
13.09
25.75
35.75
42.56
46.06
46.39
43.91
39.18
32.90
25.91
19.07
13.10
8.48
5.44
4.04
4.23
5.87
8.65
12.13
15.67
18.75
21.08
22.72
23.97
25.27
26.77
28.29
29.25
28.76
25.85
19.73
10.23
-2.10
-15.99
-29.69
-41.39
-49.55
-53.22
-51.99
-46.10
-36.34
-24.02
-10.79
1.57
11.55
18.26
21.58
22.00
20.42
17.68
14.50
11.31
8.40
5.99
4.21
3.09
2.64
2.72
3.06
3.38
3.33
2.68
1.33
-0.68
-3.21
-6.14
-9.40
-13.01
-17.04
-21.57
-26.69
-32.44
-38.87
-45.85
-52.93
-59.25
-63.49
-64.20
-60.21
-51.10
-37.46
-20.81
-3.16
13.52
27.76
38.77
46.38
50.77
52.27
51.23
48.05
43.22
37.31
30.99
24.83
19.30
14.69
11.08
8.45
6.67
5.59
5.04
4.80
4.59
4.06
2.86
0.71
-2.46
-6.52
-11.16
-16.05
-20.98
-25.87
-30.76
-35.66
-40.41
-44.46
-46.95
-46.79
-43.07
-35.33
-23.93
-9.92
5.12
19.53
31.97
41.59
48.07
51.39
51.76
49.52
45.22
39.59
33.49
27.72
22.87
19.18
16.62
14.97
13.93
13.16
12.30
11.04
9.14
6.49
3.16
-0.68
-4.75
-8.88
-13.00
-17.20
-21.70
-26.76
-32.61
-39.27
-46.38
-53.06
-58.06
-59.89
-57.40
-50.06
-38.33
-23.54
-7.55
7.75
20.88
30.98
37.78
41.38
42.07
40.19
36.20
30.74
24.65
18.87
14.20
11.14
9.67
9.32
9.43
9.30
8.54
7.07
5.08
2.85
0.53
-1.95
-4.83
-8.44
-13.02
-18.64
-25.16
-32.28
-39.46
-45.98
-50.89
-53.15
-51.79
-46.28
-36.65
-23.68
-8.70
6.73
21.05
33.07
41.95
47.34
49.23
47.96
44.13
38.56
32.19
25.86
20.30
15.96
13.04
11.43
10.75
10.46
9.99
8.90
7.01
4.40
1.32
-2.03
-5.55
-9.32
-13.52
-18.32
-23.84
-30.06
-36.87
-43.99
-50.89
-56.72
-60.38
-60.70
-56.78
-48.27
-35.63
-20.07
-3.29
12.84
26.71
37.21
43.83
46.58
45.88
42.42
37.06
30.72
24.37
18.84
14.79
12.47
11.78
12.22
13.07
13.58
13.23
11.77
9.28
6.11
2.63
-0.84
-4.20
-7.55
-11.14
-15.29
-20.30
-26.36
-33.45
-41.25
-49.01
-55.64
-59.83
-60.35
-56.37
-47.76
-35.11
-19.75
-3.33
12.40
26.00
36.49
43.46
47.01
47.55
45.67
42.06
37.34
32.15
27.07
22.61
19.16
16.91
15.78
15.43
15.36
15.04
14.06
12.25
9.65
6.44
2.85
-0.98
-5.03
-9.31
-13.89
-18.89
-24.44
-30.69
-37.72
-45.26
-52.62
-58.62
-61.85
-61.00
-55.32
-44.91
-30.69
-14.23
2.61
18.04
30.68
39.63
44.69
46.16
44.78
41.46
37.08
32.30
27.53
23.06
19.08
15.82
13.40
11.85
10.92
10.17
9.09
7.28
4.57
1.03
-3.08
-7.52
-12.14
-16.92
-21.96
-27.40
-33.37
-40.02
-47.47
-55.78
-64.75
-73.74
-81.60
-86.80
-87.79
-83.52
-73.89
-59.82
-43.05
-25.55
-8.98
5.64
17.96
28.06
36.10
42.21
46.42
48.85
49.78
49.79
49.49
49.40
49.72
50.27
50.63
50.28
48.85
46.23
42.60
38.29
33.67
28.99
24.30
19.47
14.29
8.51
1.98
-5.37
-13.46
-22.02
-30.51
-38.05
-43.50
-45.61
-43.39
-36.47
-25.33
-11.28
3.84
18.15
30.20
39.18
44.90
47.61
47.69
45.54
41.54
36.20
30.18
24.26
19.20
15.48
13.18
11.99
11.37
10.75
9.72
8.10
5.91
3.26
0.27
-3.00
-6.57
-10.52
-14.92
-19.88
-25.51
-31.91
-39.06
-46.67
-54.01
-59.94
-63.03
-61.98
-56.06
-45.41
-31.09
-14.85
1.36
15.86
27.49
35.75
40.63
42.42
41.61
38.70
34.24
28.85
23.20
17.98
13.77
10.91
9.41
8.92
8.85
8.53
7.46
5.40
2.40
-1.30
-5.40
-9.62
-13.72
-17.52
-20.87
-23.79
-26.57
-29.64
-33.44
-38.06
-43.01
-47.20
-49.17
-47.65
-41.94
-32.19
-19.40
-5.10
9.05
21.56
31.39
38.02
41.37
41.69
39.44
35.23
29.69
23.55
17.57
12.44
8.69
6.52
5.77
5.92
6.33
6.42
5.89
4.74
3.15
1.27
-0.90
-3.53
-6.87
-11.03
-15.89
-21.06
-26.07
-30.58
-34.38
-37.33
-39.23
-39.59
-37.73
-32.94
-24.77
-13.34
0.57
15.65
30.34
43.21
53.23
59.87
63.13
63.35
61.04
56.74
50.96
44.21
37.01
29.99
23.81
18.99
15.79
14.17
13.70
13.77
13.71
12.95
11.14
8.23
4.41
0.02
-4.56
-9.07
-13.47
-17.96
-22.92
-28.74
-35.65
-43.45
-51.46
-58.54
-63.25
-64.24
-60.60
-52.21
-39.75
-24.62
-8.61
6.57
19.51
29.39
35.93
39.29
39.95
38.51
35.53
31.54
27.03
22.48
18.42
15.25
13.21
12.21
11.86
11.63
11.03
9.80
7.91
5.50
2.73
-0.32
-3.67
-7.48
-11.89
-17.04
-23.04
-29.88
-37.44
-45.37
-52.95
-59.21
-62.95
-63.06
-58.84
-50.19
-37.77
-22.86
-7.09
7.93
20.88
30.91
37.69
41.27
41.98
40.35
37.01
32.61
27.81
23.17
19.14
15.99
13.80
12.41
11.51
10.68
9.54
7.82
5.45
2.56
-0.69
-4.14
-7.78
-11.76
-16.33
-21.73
-28.06
-35.24
-42.85
-50.12
-55.99
-59.23
-58.72
-53.76
-44.29
-31.01
-15.30
1.14
16.63
29.85
40.00
46.77
50.23
50.65
48.44
44.15
38.46
32.23
26.29
21.33
17.72
15.43
14.13
13.32
12.56
11.52
10.08
8.22
6.01
3.47
0.61
-2.65
-6.39
-10.73
-15.81
-21.74
-28.50
-35.84
-43.18
-49.53
-53.69
-54.46
-50.98
-43.04
-31.17
-16.56
-0.86
14.22
27.20
37.11
43.52
46.54
46.63
44.41
40.54
35.61
30.19
24.83
20.09
16.41
13.96
12.58
11.83
11.10
9.89
8.01
5.54
2.79
0.08
-2.48
-5.05
-7.98
-11.71
-16.59
-22.78
-30.18
-38.36
-46.53
-53.59
-58.20
-59.11
-55.49
-47.20
-34.97
-20.15
-4.46
10.48
23.39
33.48
40.34
43.93
44.43
42.31
38.24
33.05
27.61
22.64
18.61
15.70
13.82
12.68
11.92
11.16
10.10
8.60
6.65
4.35
1.82
-0.86
-3.74
-6.99
-10.84
-15.49
-21.11
-27.66
-34.86
-42.11
-48.47
-52.74
-53.71
-50.47
-42.70
-30.91
-16.36
-0.79
14.07
26.81
36.61
43.18
46.60
47.12
45.05
40.84
35.13
28.84
22.96
18.29
15.25
13.69
13.05
12.59
11.72
10.15
7.91
5.26
2.44
-0.45
-3.48
-6.83
-10.72
-15.31
-20.71
-26.97
-34.05
-41.70
-49.34
-55.99
-60.35
-61.05
-57.13
-48.40
-35.57
-20.11
-3.87
11.44
24.55
34.73
41.74
45.64
46.69
45.29
41.99
37.49
32.52
27.76
23.66
20.48
18.18
16.60
15.42
14.34
13.05
11.40
9.32
6.86
4.08
1.02
-2.33
-6.07
-10.36
-15.34
-21.19
-28.00
-35.63
-43.62
-51.07
-56.71
-59.15
-57.24
-50.49
-39.28
-24.77
-8.71
7.12
21.15
32.38
40.38
45.17
47.08
46.54
44.06
40.14
35.36
30.33
25.65
21.79
18.97
17.13
15.96
15.00
13.88
12.33
10.32
7.95
5.36
2.63
-0.26
-3.45
-7.08
-11.34
-16.35
-22.24
-29.01
-36.47
-44.09
-50.89
-55.52
-56.64
-53.28
-45.25
-33.26
-18.72
-3.30
11.43
24.36
34.77
42.26
46.61
47.73
45.78
41.25
35.03
28.25
22.02
17.20
14.10
12.54
11.96
11.62
10.90
9.45
7.28
4.65
1.87
-0.84
-3.48
-6.21
-9.29
-12.94
-17.42
-22.90
-29.43
-36.76
-44.20
-50.59
-54.47
-54.54
-50.01
-40.99
-28.41
-13.82
1.10
14.82
26.28
34.85
40.28
42.62
42.19
39.50
35.25
30.21
25.11
20.54
16.90
14.31
12.71
11.80
11.20
10.50
9.36
7.66
5.46
2.91
0.17
-2.79
-6.15
-10.21
-15.20
-21.21
-28.13
-35.64
-43.22
-50.13
-55.37
-57.77
-56.25
-50.16
-39.66
-25.75
-10.11
5.38
19.12
30.09
37.92
42.65
44.54
43.93
41.21
36.87
31.51
25.85
20.55
16.14
12.87
10.71
9.38
8.46
7.52
6.26
4.54
2.38
-0.14
-2.96
-6.09
-9.68
-13.90
-18.93
-24.86
-31.62
-38.96
-46.38
-53.09
-58.11
-60.35
-58.87
-53.16
-43.26
-29.94
-14.51
1.40
16.19
28.55
37.71
43.44
45.91
45.56
42.94
38.64
33.30
27.56
22.08
17.43
13.96
11.69
10.35
9.45
8.47
7.05
5.07
2.67
0.04
-2.64
-5.46
-8.60
-12.42
-17.24
-23.23
-30.34
-38.22
-46.16
-53.14
-57.93
-59.31
-56.40
-48.92
-37.33
-22.78
-6.88
8.68
22.44
33.39
41.02
45.23
46.23
44.41
40.29
34.54
27.93
21.33
15.52
11.02
7.92
5.94
4.47
2.88
0.71
-2.21
-5.77
-9.69
-13.72
-17.74
-21.86
-26.34
-31.54
-37.75
-45.15
-53.70
-63.07
-72.58
-81.18
-87.54
-90.26
-88.14
-80.61
-67.86
-50.91
-31.35
-10.98
8.56
26.01
40.59
51.87
59.72
64.23
65.73
64.80
62.18
58.71
55.13
51.91
49.22
46.92
44.70
42.22
39.24
35.69
31.65
27.31
22.88
18.43
13.89
9.04
3.55
-2.88
-10.39
-18.83
-27.73
-36.23
-43.12
-47.08
-46.99
-42.22
-32.94
-20.08
-5.18
10.06
24.07
35.73
44.36
49.68
51.64
50.44
46.48
40.52
33.55
26.66
20.80
16.53
13.88
12.46
11.61
10.67
9.20
7.03
4.33
1.37
-1.59
-4.51
-7.55
-11.01
-15.27
-20.59
-27.06
-34.55
-42.66
-50.63
-57.40
-61.67
-62.18
-58.10
-49.29
-36.52
-21.17
-4.95
10.58
24.20
35.13
42.95
47.46
48.70
46.93
42.76
37.00
30.68
24.76
19.90
16.39
14.03
12.36
10.84
9.08
6.95
4.62
2.32
0.18
-1.92
-4.36
-7.58
-11.98
-17.75
-24.82
-32.89
-41.30
-49.12
-55.12
-57.95
-56.49
-50.24
-39.50
-25.40
-9.63
6.08
20.25
31.90
40.51
45.89
48.07
47.28
43.97
38.81
32.69
26.57
21.27
17.28
14.65
13.02
11.83
10.53
8.80
6.64
4.27
1.90
-0.44
-3.04
-6.34
-10.82
-16.72
-23.96
-32.14
-40.56
-48.27
-54.15
-57.07
-56.04
-50.50
-40.56
-27.09
-11.54
4.34
18.86
30.73
39.19
43.97
45.25
43.50
39.39
33.73
27.42
21.31
16.10
12.22
9.69
8.20
7.22
6.22
4.82
2.94
0.68
-1.80
-4.43
-7.36
-10.92
-15.50
-21.42
-28.74
-37.10
-45.65
-53.06
-57.81
-58.49
-54.28
-45.21
-32.25
-16.95
-1.06
13.86
26.71
36.81
43.80
47.53
48.06
45.69
41.08
35.16
28.99
23.48
19.24
16.42
14.74
13.68
12.65
11.19
9.13
6.48
3.45
0.23
-3.09
-6.57
-10.46
-15.12
-20.89
-27.98
-36.28
-45.17
-53.57
-59.99
-62.87
-61.00
-53.87
-41.89
-26.26
-8.74
8.82
24.77
37.91
47.53
53.35
55.50
54.39
50.73
45.41
39.41
33.66
28.88
25.43
23.29
22.04
21.11
19.93
18.10
15.51
12.25
8.55
4.66
0.66
-3.46
-7.88
-12.84
-18.63
-25.49
-33.52
-42.55
-51.98
-60.74
-67.36
-70.25
-68.12
-60.39
-47.43
-30.51
-11.54
7.45
24.69
38.90
49.39
55.93
58.69
58.10
54.88
49.88
44.07
38.35
33.46
29.82
27.56
26.48
26.12
25.93
25.35
23.97
21.62
18.36
14.40
10.00
5.36
0.57
-4.36
-9.57
-15.28
-21.78
-29.32
-38.01
-47.56
-57.16
-65.44
-70.67
-71.19
-65.95
-54.86
-38.93
-20.01
-0.30
18.21
34.08
46.48
55.10
59.92
61.15
59.18
54.71
48.72
42.28
36.38
31.67
28.42
26.47
25.46
24.97
24.59
23.98
22.82
20.87
17.96
14.14
9.57
4.54
-0.69
-6.04
-11.57
-17.49
-24.02
-31.34
-39.47
-48.18
-56.90
-64.62
-69.97
-71.48
-67.96
-58.90
-44.78
-26.97
-7.46
11.61
28.38
41.54
50.50
55.26
56.33
54.54
50.80
45.99
40.85
36.00
31.92
28.90
27.03
26.11
25.69
25.24
24.27
22.53
20.01
16.84
13.19
9.13
4.64
-0.30
-5.68
-11.45
-17.59
-24.17
-31.39
-39.42
-48.28
-57.55
-66.24
-72.88
-75.77
-73.54
-65.50
-51.99
-34.26
-14.24
5.93
24.33
39.53
50.72
57.65
60.56
60.01
56.78
51.78
45.99
40.29
35.42
31.80
29.52
28.31
27.71
27.23
26.48
25.21
23.33
20.74
17.36
13.13
8.07
2.32
-3.82
-10.10
-16.30
-22.41
-28.62
-35.30
-42.90
-51.70
-61.58
-71.78
-80.89
-87.07
-88.54
-84.09
-73.47
-57.49
-37.80
-16.48
4.44
23.24
38.74
50.25
57.57
60.90
60.79
58.02
53.59
48.47
43.55
39.43
36.36
34.29
32.88
31.76
30.61
29.26
27.67
25.80
23.50
20.52
16.57
11.52
5.49
-1.18
-8.00
-14.60
-20.85
-26.95
-33.37
-40.63
-49.01
-58.38
-68.02
-76.59
-82.35
-83.62
-79.19
-68.74
-52.99
-33.55
-12.47
8.15
26.55
41.51
52.34
58.84
61.25
60.18
56.51
51.32
45.63
40.28
35.78
32.32
29.82
28.06
26.79
25.75
24.79
23.74
22.41
20.55
17.86
14.12
9.26
3.50
-2.77
-9.04
-14.97
-20.53
-26.03
-32.03
-39.10
-47.58
-57.22
-67.17
-75.91
-81.61
-82.49
-77.34
-65.95
-49.22
-29.03
-7.74
12.32
29.33
42.28
50.83
55.28
56.17
54.24
50.29
45.17
39.70
34.61
30.46
27.50
25.72
24.81
24.34
23.83
22.91
21.36
19.10
16.16
12.56
8.29
3.30
-2.36
-8.53
-14.92
-21.19
-27.22
-33.25
-39.81
-47.47
-56.43
-66.07
-74.96
-81.03
-82.28
-77.33
-66.02
-49.38
-29.39
-8.37
11.56
28.77
42.31
51.71
56.97
58.39
56.62
52.55
47.26
41.81
37.04
33.37
30.81
29.04
27.64
26.30
24.88
23.47
22.18
21.00
19.70
17.80
14.81
10.35
4.46
-2.48
-9.80
-16.82
-23.14
-28.77
-34.17
-40.06
-47.19
-55.96
-66.21
-77.05
-86.90
-93.81
-95.92
-91.95
-81.58
-65.56
-45.54
-23.65
-2.03
17.57
33.91
46.37
54.75
59.20
60.12
58.11
53.98
48.70
43.22
38.34
34.52
31.82
29.91
28.37
26.79
25.01
23.05
21.09
19.18
17.13
14.54
10.88
5.78
-0.85
-8.68
-17.10
-25.41
-33.09
-39.98
-46.42
-53.08
-60.78
-70.13
-81.21
-93.44
-105.44
-115.35
-121.12
-121.11
-114.45
-101.28
-82.70
-60.44
-36.49
-12.66
9.55
29.10
45.36
58.04
67.17
73.07
76.25
77.33
76.98
75.81
74.32
72.80
71.34
69.86
68.14
65.99
63.39
60.42
57.24
53.95
50.46
46.48
41.67
35.72
28.61
20.55
11.99
3.42
-4.76
-12.33
-19.33
-26.01
-32.79
-40.14
-48.44
-57.76
-67.70
-77.23
-84.77
-88.50
-86.81
-78.86
-64.91
-46.33
-25.21
-3.87
15.72
32.14
44.65
52.98
57.25
57.86
55.47
51.01
45.54
40.06
35.35
31.76
29.29
27.67
26.56
25.66
24.85
24.09
23.36
22.45
21.04
18.67
15.01
10.01
3.94
-2.63
-9.08
-15.04
-20.50
-25.81
-31.56
-38.30
-46.33
-55.47
-64.90
-73.23
-78.69
-79.57
-74.65
-63.68
-47.43
-27.62
-6.45
13.82
31.36
44.96
54.12
58.91
59.81
57.60
53.20
47.63
41.82
36.56
32.33
29.24
27.06
25.37
23.83
22.27
20.77
19.47
18.35
17.16
15.39
12.52
8.25
2.66
-3.84
-10.65
-17.26
-23.45
-29.34
-35.38
-42.12
-50.08
-59.34
-69.43
-79.17
-86.82
-90.47
-88.49
-80.12
-65.65
-46.49
-24.75
-2.77
17.45
34.46
47.54
56.47
61.39
62.67
60.81
56.55
50.80
44.66
39.13
34.90
32.20
30.75
29.96
29.24
28.21
26.86
25.35
23.84
22.25
20.25
17.36
13.21
7.74
1.23
-5.74
-12.59
-18.93
-24.72
-30.28
-36.13
-42.85
-50.84
-60.10
-70.16
-79.98
-88.06
-92.70
-92.33
-85.92
-73.38
-55.61
-34.38
-11.96
9.44
28.07
42.84
53.37
59.79
62.51
62.06
59.08
54.28
48.50
42.64
37.47
33.47
30.73
28.97
27.78
26.82
25.89
24.95
23.94
22.64
20.69
17.73
13.58
8.36
2.43
-3.69
-9.65
-15.30
-20.82
-26.59
-33.14
-40.86
-49.81
-59.51
-68.77
-75.84
-78.79
-76.03
-66.90
-51.92
-32.75
-11.72
8.71
26.57
40.62
50.42
56.10
58.11
57.04
53.52
48.24
42.00
35.59
29.77
25.09
21.80
19.80
18.71
18.07
17.40
16.38
14.83
12.64
9.74
6.12
1.79
-3.12
-8.40
-13.83
-19.24
-24.67
-30.40
-36.83
-44.31
-52.76
-61.47
-68.97
-73.35
-72.78
-66.13
-53.45
-36.00
-15.98
4.16
22.27
36.95
47.53
54.00
56.69
56.12
52.86
47.59
41.11
34.30
28.04
23.01
19.53
17.52
16.57
16.09
15.55
14.53
12.84
10.37
7.12
3.13
-1.50
-6.57
-11.88
-17.27
-22.80
-28.76
-35.54
-43.47
-52.49
-61.96
-70.59
-76.63
-78.34
-74.39
-64.37
-49.00
-29.92
-9.37
10.42
27.68
41.34
50.97
56.61
58.55
57.17
53.05
46.96
39.90
32.96
27.02
22.61
19.76
18.09
17.06
16.15
14.98
13.35
11.16
8.32
4.79
0.59
-4.21
-9.43
-14.93
-20.66
-26.79
-33.62
-41.51
-50.51
-60.17
-69.37
-76.41
-79.43
-76.92
-68.24
-53.87
-35.32
-14.76
5.58
23.83
38.77
49.88
57.07
60.55
60.64
57.78
52.56
45.86
38.70
32.15
27.00
23.55
21.59
20.51
19.61
18.33
16.43
13.87
10.78
7.27
3.41
-0.80
-5.36
-10.31
-15.77
-21.97
-29.23
-37.76
-47.42
-57.47
-66.52
-72.78
-74.41
-70.19
-59.83
-44.19
-25.09
-4.75
14.67
31.52
44.77
53.96
59.02
60.11
57.67
52.38
45.20
37.26
29.69
23.36
18.74
15.84
14.30
13.52
12.85
11.77
9.97
7.42
4.29
0.79
-2.92
-6.85
-11.21
-16.29
-22.40
-29.77
-38.41
-47.96
-57.58
-65.89
-71.15
-71.66
-66.31
-54.97
-38.65
-19.33
0.62
18.99
34.20
45.45
52.52
55.59
54.97
51.13
44.75
36.85
28.71
21.64
16.54
13.67
12.52
12.14
11.49
9.93
7.35
4.10
0.65
-2.70
-5.98
-9.53
-13.77
-19.13
-25.82
-33.82
-42.81
-52.07
-60.45
-66.52
-68.74
-65.92
-57.59
-44.20
-27.08
-8.08
10.79
27.78
41.64
51.61
57.41
59.09
57.04
51.96
44.81
36.74
28.95
22.41
17.70
14.87
13.48
12.79
12.00
10.53
8.17
5.09
1.58
-2.10
-5.90
-9.97
-14.61
-20.11
-26.75
-34.66
-43.85
-53.98
-64.21
-73.15
-78.99
-79.90
-74.62
-62.93
-45.83
-25.26
-3.59
16.94
34.64
48.49
58.05
63.31
64.54
62.27
57.30
50.60
43.26
36.33
30.59
26.47
24.02
22.87
22.45
22.10
21.23
19.42
16.52
12.63
7.98
2.85
-2.51
-8.04
-13.83
-20.15
-27.35
-35.72
-45.29
-55.62
-65.65
-73.83
-78.32
-77.47
-70.34
-56.99
-38.60
-17.14
4.99
25.52
42.69
55.45
63.53
67.20
67.14
64.25
59.43
53.56
47.41
41.63
36.71
32.99
30.53
29.15
28.46
27.95
27.09
25.49
22.93
19.37
14.89
9.67
3.91
-2.19
-8.45
-14.78
-21.21
-27.99
-35.53
-44.24
-54.21
-64.85
-74.78
-82.02
-84.45
-80.50
-69.70
-52.83
-31.73
-8.82
13.52
33.30
49.09
60.13
66.22
67.68
65.33
60.29
53.83
47.14
41.14
36.40
33.10
31.11
30.09
29.60
29.24
28.68
27.68
26.08
23.71
20.44
16.11
10.74
4.50
-2.25
-9.09
-15.66
-21.84
-27.81
-34.02
-41.07
-49.45
-59.17
-69.58
-79.21
-86.01
-87.87
-83.23
-71.66
-54.00
-32.21
-8.84
13.62
33.12
48.37
58.80
64.48
65.86
63.77
59.24
53.36
47.21
41.66
37.28
34.25
32.40
31.38
30.73
30.08
29.20
27.97
26.26
23.91
20.65
16.21
10.37
3.13
-5.32
-14.57
-24.20
-33.83
-43.30
-52.78
-62.67
-73.29
-84.68
-96.28
-106.77
-114.20
-116.44
-111.82
-99.64
-80.49
-55.98
-28.43
-0.40
25.80
48.44
66.40
79.14
86.48
88.50
85.71
78.78
68.54
56.00
42.38
28.92
16.75
6.69
-0.83
-5.02
-5.67
-3.38
0.50
4.42
7.08
7.75
6.36
3.40
0.84
-0.02
0.75
1.97
2.47
1.64
-0.46
-3.74
-8.44
-13.29
-17.81
-22.47
-27.65
-32.23
-33.45
-27.58
-11.46
16.54
58.26
112.08
172.09
229.44
275.53
304.38
314.63
308.82
277.35
220.91
151.19
84.89
33.07
-2.20
-24.48
-37.40
-44.05
-46.87
-45.74
-41.39
-36.08
-32.71
-33.06
-38.29
-47.43
-59.84
-75.21
-91.57
-107.71
-123.88
-141.26
-156.09
-168.20
-177.14
-183.36
-187.33
-188.14
-185.15
-178.74
-170.02
-160.17
-153.96
-149.57
-146.13
-143.60
-142.13
-142.42
-144.94
-148.71
-150.65
-146.74
-132.55
-107.28
-73.77
-37.38
-3.94
22.30
39.81
48.22
47.53
39.04
24.06
5.05
-13.97
-27.88
-32.20
-24.90
-7.65
14.75
36.63
52.66
60.00
58.73
51.47
42.34
35.63
34.82
41.90
57.61
81.10
110.60
143.48
176.37
205.34
226.58
237.46
237.55
228.54
212.97
192.56
166.81
133.15
88.42
31.16
-36.77
-109.85
-180.26
-239.93
-282.43
-304.35
-305.80
-290.26
-263.81
-233.73
-206.78
-187.47
-177.09
-173.70
-173.18
-170.74
-162.31
-145.49
-119.56
-85.24
-43.93
3.00
54.77
111.10
171.31
233.03
291.40
339.52
370.32
378.98
364.80
331.33
284.84
231.98
178.04
126.31
78.87
37.59
4.63
-18.03
-29.54
-30.99
-25.30
-16.37
-7.87
-2.30
-0.68
-2.65
-7.25
-13.49
-20.88
-29.46
-39.33
-50.13
-60.49
-68.10
-70.43
-65.75
-54.08
-37.37
-18.81
-1.66
11.96
21.55
27.93
32.38
35.76
38.04
38.60
36.68
32.01
25.07
16.93
8.94
2.36
-1.86
-3.26
-1.88
1.71
6.56
11.54
15.68
18.41
19.69
19.82
19.27
18.31
16.92
14.67
10.94
5.11
-3.04
-13.10
-23.91
-33.67
-40.47
-42.71
-39.62
-31.37
-18.97
-3.92
12.12
27.56
41.04
51.40
57.82
59.92
57.87
52.38
44.55
35.61
26.59
18.21
10.82
4.50
-0.87
-5.46
-9.44
-13.02
-16.36
-19.65
-22.99
-26.40
-29.89
-33.48
-37.36
-41.78
-46.94
-52.81
-58.91
-64.29
-67.66
-67.65
-63.19
-53.79
-39.64
-21.65
-1.19
20.07
40.45
58.41
72.74
82.64
87.79
88.40
85.14
79.00
71.14
62.65
54.40
46.89
40.37
34.84
30.23
26.47
23.40
20.87
18.60
16.26
13.50
10.12
6.05
1.39
-3.71
-9.08
-14.61
-20.30
-26.21
-32.51
-39.33
-46.66
-54.13
-60.93
-65.80
-67.34
-64.45
-56.65
-44.35
-28.71
-11.38
5.90
21.54
34.33
43.46
48.58
49.81
47.68
43.00
36.72
29.72
22.75
16.33
10.82
6.36
2.91
0.24
-2.02
-4.27
-6.78
-9.73
-13.13
-16.99
-21.32
-26.13
-31.36
-36.85
-42.36
-47.71
-52.88
-57.95
-63.11
-68.34
-73.25
-77.01
-78.43
-76.28
-69.57
-57.92
-41.71
-22.00
-0.40
21.23
41.12
57.86
70.52
78.75
82.74
83.01
80.36
75.61
69.58
62.92
56.16
49.69
43.78
38.66
34.46
31.17
28.65
26.60
24.66
22.44
19.71
16.37
12.47
8.11
3.41
-1.48
-6.43
-11.31
-16.04
-20.70
-25.56
-30.91
-36.89
-43.18
-48.97
-53.03
-54.15
-51.46
-44.82
-34.78
-22.45
-9.15
3.84
15.41
24.75
31.33
34.93
35.64
33.82
30.08
25.15
19.76
14.53
9.91
6.11
3.16
0.91
-0.90
-2.47
-3.96
-5.52
-7.23
-9.22
-11.57
-14.38
-17.60
-21.13
-24.89
-28.87
-33.21
-38.15
-43.88
-50.34
-57.15
-63.56
-68.71
-71.72
-71.92
-68.93
-62.67
-53.43
-41.81
-28.72
-15.22
-2.40
8.92
18.28
25.60
31.04
34.81
37.09
38.07
38.05
37.48
36.88
36.64
36.83
37.15
37.09
36.20
34.26
31.39
27.92
24.17
20.36
16.53
12.66
8.70
4.58
0.24
-4.50
-9.77
-15.59
-21.66
-27.36
-31.83
-34.16
-33.70
-30.17
-23.82
-15.24
-5.36
4.80
14.21
21.99
27.60
30.80
31.76
30.87
28.64
25.52
21.85
17.91
13.93
10.19
6.94
4.37
2.54
1.37
0.58
-0.12
-1.03
-2.35
-4.07
-6.07
-8.18
-10.26
-12.34
-14.61
-17.40
-20.96
-25.45
-30.69
-36.26
-41.53
-45.80
-48.41
-48.80
-46.59
-41.58
-33.88
-23.97
-12.75
-1.37
8.98
17.38
23.33
26.77
28.00
27.43
25.48
22.50
18.85
14.92
11.18
8.05
5.77
4.30
3.40
2.65
1.71
0.40
-1.25
-3.16
-5.23
-7.45
-9.93
-12.75
-15.97
-19.59
-23.56
-27.91
-32.70
-38.00
-43.70
-49.39
-54.42
-57.91
-59.06
-57.30
-52.48
-44.88
-35.16
-24.33
-13.51
-3.83
3.85
9.00
11.58
11.90
10.44
7.62
3.80
-0.80
-5.87
-10.98
-15.62
-19.32
-21.84
-23.24
-23.76
-23.65
-23.03
-21.82
-19.87
-17.13
-13.74
-9.97
-6.17
-2.59
0.56
3.15
4.99
5.74
5.07
2.75
-1.09
-5.85
-10.54
-14.00
-15.21
-13.53
-8.85
-1.56
7.58
17.57
27.34
35.87
42.36
46.38
47.88
47.19
44.82
41.31
37.08
32.46
27.73
23.21
19.22
16.03
13.63
11.85
10.37
8.92
7.38
5.77
4.16
2.54
0.76
-1.37
-3.99
-7.06
-10.52
-14.25
-18.29
-22.71
-27.57
-32.64
-37.30
-40.60
-41.49
-39.16
-33.35
-24.49
-13.62
-2.09
8.80
18.07
25.18
29.98
32.54
32.99
31.53
28.42
24.12
19.33
14.81
11.24
8.94
7.81
7.41
7.15
6.50
5.28
3.53
1.56
-0.37
-2.14
-3.85
-5.79
-8.27
-11.57
-15.76
-20.78
-26.40
-32.25
-37.82
-42.49
-45.52
-46.17
-43.87
-38.34
-29.78
-18.90
-6.82
5.10
15.63
23.85
29.35
32.09
32.31
30.29
26.38
20.99
14.67
8.16
2.19
-2.65
-6.19
-8.64
-10.45
-12.14
-14.08
-16.46
-19.23
-22.30
-25.51
-28.79
-32.02
-35.15
-38.12
-40.88
-43.42
-45.61
-47.31
-48.18
-47.71
-45.23
-40.07
-31.75
-20.12
-5.61
10.85
27.87
43.92
57.63
68.04
74.79
77.97
78.05
75.57
71.13
65.29
58.71
52.08
46.08
41.15
37.42
34.68
32.53
30.56
28.57
26.54
24.49
22.41
20.12
17.42
14.13
10.24
5.91
1.31
-3.50
-8.61
-14.25
-20.54
-27.34
-34.13
-40.05
-44.10
-45.31
-43.02
-37.01
-27.59
-15.60
-2.25
11.00
22.86
32.35
38.96
42.66
43.74
42.65
39.88
36.02
31.68
27.51
24.07
21.68
20.32
19.71
19.40
18.98
18.23
17.06
15.56
13.75
11.60
9.04
6.03
2.63
-0.99
-4.62
-8.17
-11.71
-15.48
-19.84
-24.97
-30.83
-36.99
-42.69
-46.95
-48.76
-47.34
-42.34
-33.97
-22.96
-10.50
2.11
13.60
23.00
29.77
33.79
35.28
34.68
32.52
29.27
25.36
21.17
17.04
13.29
10.18
7.85
6.29
5.35
4.83
4.48
4.05
3.28
1.99
0.00
-2.68
-5.93
-9.57
-13.47
-17.64
-22.20
-27.37
-33.22
-39.66
-46.30
-52.53
-57.60
-60.70
-61.14
-58.49
-52.75
-44.41
-34.42
-23.95
-14.13
-5.82
0.52
4.81
7.30
8.44
8.81
8.99
9.55
10.90
13.29
16.76
21.11
25.98
30.88
35.31
38.82
41.08
41.97
41.54
39.99
37.56
34.46
30.87
26.88
22.51
17.71
12.40
6.49
0.02
-6.78
-13.36
-18.94
-22.67
-23.80
-21.90
-16.96
-9.41
-0.06
10.06
19.86
28.36
34.87
39.03
40.83
40.51
38.48
35.19
31.12
26.71
22.39
18.58
15.57
13.52
12.37
11.85
11.63
11.34
10.75
9.71
8.24
6.37
4.11
1.44
-1.69
-5.28
-9.24
-13.42
-17.73
-22.17
-26.80
-31.71
-36.74
-41.46
-45.16
-46.96
-46.11
-42.16
-35.14
-25.54
-14.28
-2.49
8.69
18.28
25.63
30.45
32.81
33.03
31.57
28.95
25.72
22.33
19.18
16.55
14.54
13.14
12.27
11.80
11.61
11.57
11.54
11.32
10.73
9.57
7.74
5.22
2.12
-1.35
-4.94
-8.47
-11.87
-15.30
-19.07
-23.50
-28.75
-34.60
-40.41
-45.23
-48.09
-48.21
-45.19
-39.08
-30.30
-19.58
-7.87
3.77
14.28
22.77
28.67
31.86
32.63
31.54
29.25
26.34
23.25
20.29
17.67
15.53
13.95
12.91
12.27
11.81
11.31
10.61
9.66
8.43
6.89
4.98
2.61
-0.22
-3.39
-6.67
-9.89
-12.98
-16.10
-19.59
-23.76
-28.71
-34.23
-39.74
-44.47
-47.59
-48.39
-46.44
-41.58
-34.01
-24.27
-13.22
-1.93
8.49
17.13
23.42
27.24
28.88
28.82
27.53
25.41
22.70
19.59
16.39
13.42
11.01
9.36
8.45
8.10
8.06
8.06
7.94
7.60
6.96
5.90
4.28
2.02
-0.83
-4.08
-7.46
-10.74
-13.90
-17.17
-20.93
-25.52
-30.91
-36.67
-41.89
-45.49
-46.50
-44.32
-38.95
-30.85
-20.87
-10.03
0.67
10.37
18.43
24.48
28.36
30.13
30.00
28.31
25.49
22.03
18.42
15.11
12.42
10.50
9.31
8.64
8.17
7.58
6.68
5.42
3.90
2.27
0.58
-1.20
-3.18
-5.46
-8.11
-11.14
-14.54
-18.37
-22.70
-27.48
-32.39
-36.80
-39.80
-40.43
-38.02
-32.40
-24.05
-13.95
-3.31
6.71
15.30
21.99
26.68
29.37
30.13
28.99
26.13
21.95
17.10
12.36
8.43
5.69
4.07
3.15
2.36
1.27
-0.28
-2.13
-4.04
-5.83
-7.50
-9.27
-11.41
-14.12
-17.48
-21.40
-25.74
-30.28
-34.70
-38.53
-41.12
-41.69
-39.54
-34.32
-26.15
-15.79
-4.33
6.94
16.91
24.80
30.32
33.49
34.52
33.67
31.18
27.36
22.67
17.75
13.25
9.71
7.30
5.77
4.70
3.63
2.29
0.72
-0.88
-2.36
-3.69
-5.07
-6.84
-9.34
-12.85
-17.49
-23.17
-29.57
-36.06
-41.77
-45.66
-46.78
-44.50
-38.68
-29.67
-18.26
-5.55
7.29
19.11
28.98
36.22
40.55
42.03
41.00
37.99
33.60
28.47
23.22
18.44
14.59
11.87
10.19
9.18
8.37
7.34
5.84
3.86
1.52
-1.03
-3.75
-6.72
-10.13
-14.22
-19.20
-25.18
-32.11
-39.69
-47.27
-53.98
-58.69
-60.38
-58.30
-52.27
-42.73
-30.66
-17.37
-4.24
7.54
17.09
23.86
27.66
28.56
26.87
23.10
17.85
11.80
5.61
-0.13
-4.97
-8.58
-10.86
-11.86
-11.76
-10.80
-9.21
-7.14
-4.72
-2.02
0.86
3.82
6.65
9.10
10.84
11.51
10.72
8.22
3.92
-1.91
-8.56
-14.95
-19.74
-21.72
-20.03
-14.39
-5.21
6.59
19.75
32.89
44.78
54.43
61.21
64.87
65.50
63.45
59.29
53.72
47.53
41.48
36.24
32.22
29.51
27.88
26.93
26.25
25.51
24.54
23.23
21.53
19.34
16.56
13.14
9.13
4.69
0.03
-4.67
-9.31
-13.97
-18.85
-24.27
-30.40
-37.18
-44.10
-50.22
-54.35
-55.33
-52.35
-45.18
-34.29
-20.68
-5.73
9.11
22.61
33.83
42.24
47.66
50.15
49.99
47.60
43.56
38.58
33.45
28.90
25.41
23.11
21.81
21.10
20.59
20.06
19.49
18.96
18.48
17.92
16.97
15.28
12.62
8.94
4.48
-0.43
-5.33
-9.91
-14.01
-17.71
-21.31
-25.23
-29.92
-35.58
-42.12
-48.92
-54.96
-58.98
-59.78
-56.55
-49.04
-37.72
-23.66
-8.35
6.63
19.89
30.43
37.74
41.82
42.98
41.74
38.68
34.39
29.46
24.52
20.14
16.80
14.70
13.74
13.61
13.85
14.09
14.12
13.83
13.17
12.07
10.44
8.21
5.42
2.21
-1.22
-4.73
-8.26
-11.95
-16.04
-20.73
-26.09
-31.87
-37.44
-41.88
-44.10
-43.17
-38.58
-30.43
-19.41
-6.74
6.16
17.93
27.54
34.40
38.37
39.64
38.62
35.80
31.67
26.81
21.80
17.29
13.76
11.44
10.25
9.81
9.67
9.45
8.93
8.04
6.72
4.93
2.58
-0.32
-3.69
-7.29
-10.88
-14.29
-17.59
-21.02
-24.94
-29.55
-34.68
-39.68
-43.54
-45.12
-43.49
-38.31
-29.86
-19.00
-6.92
5.14
16.09
25.14
31.81
35.96
37.74
37.56
36.02
33.66
30.90
27.88
24.58
20.91
16.93
12.85
9.04
5.80
3.27
1.32
-0.33
-1.98
-3.82
-5.84
-7.93
-9.98
-11.98
-14.09
-16.53
-19.60
-23.53
-28.42
-34.12
-40.22
-45.96
-50.40
-52.54
-51.55
-47.02
-39.11
-28.47
-16.15
-3.38
8.68
19.11
27.29
32.93
36.05
36.91
35.91
33.54
30.27
26.60
22.95
19.68
17.06
15.20
14.08
13.56
13.42
13.40
13.22
12.66
11.48
9.56
6.83
3.43
-0.38
-4.28
-8.03
-11.56
-15.00
-18.69
-22.98
-28.13
-34.06
-40.36
-46.23
-50.64
-52.58
-51.28
-46.42
-38.16
-27.21
-14.61
-1.61
10.54
20.82
28.48
33.25
35.29
35.08
33.28
30.53
27.39
24.22
21.27
18.70
16.64
15.14
14.16
13.56
13.19
12.89
12.49
11.87
10.87
9.34
7.16
4.35
1.06
-2.46
-5.92
-9.19
-12.35
-15.61
-19.26
-23.53
-28.48
-33.96
-39.57
-44.68
-48.50
-50.20
-49.09
-44.79
-37.37
-27.43
-15.98
-4.25
6.61
15.69
22.54
27.12
29.66
30.53
30.02
28.37
25.84
22.79
19.69
17.00
15.02
13.75
12.99
12.47
11.98
11.52
11.11
10.77
10.27
9.28
7.47
4.71
1.18
-2.70
-6.48
-9.89
-12.92
-15.87
-19.15
-23.09
-27.80
-33.00
-38.14
-42.42
-45.02
-45.20
-42.49
-36.82
-28.50
-18.26
-7.13
3.74
13.34
20.89
26.07
28.90
29.71
28.96
27.11
24.56
21.64
18.67
15.95
13.70
12.04
10.89
10.11
9.47
8.83
8.09
7.24
6.26
5.07
3.59
1.76
-0.39
-2.76
-5.21
-7.73
-10.43
-13.54
-17.32
-21.87
-27.04
-32.39
-37.28
-40.92
-42.58
-41.64
-37.80
-31.13
-22.12
-11.69
-0.99
8.86
16.98
22.98
26.83
28.78
29.15
28.15
25.97
22.81
19.05
15.22
11.91
9.59
8.46
8.37
8.92
9.59
9.96
9.78
8.96
7.55
5.64
3.30
0.62
-2.29
-5.31
-8.36
-11.44
-14.71
-18.37
-22.59
-27.36
-32.36
-37.02
-40.59
-42.28
-41.42
-37.66
-30.99
-21.89
-11.23
-0.19
10.06
18.61
24.94
29.00
31.03
31.37
30.32
28.14
25.10
21.57
18.01
14.87
12.42
10.73
9.64
8.90
8.29
7.68
7.01
6.23
5.24
3.87
1.97
-0.48
-3.41
-6.61
-9.86
-13.05
-16.28
-19.82
-24.05
-29.19
-35.16
-41.42
-47.02
-50.82
-51.83
-49.42
-43.55
-34.75
-23.89
-12.04
-0.26
10.57
19.67
26.50
30.77
32.52
32.12
30.18
27.40
24.41
21.65
19.36
17.61
16.33
15.45
14.86
14.44
14.11
13.75
13.26
12.49
11.33
9.69
7.54
4.94
1.98
-1.21
-4.53
-7.96
-11.57
-15.50
-19.91
-24.92
-30.47
-36.28
-41.77
-46.14
-48.50
-48.07
-44.36
-37.34
-27.50
-15.74
-3.24
8.76
19.22
27.41
33.03
36.12
36.99
36.04
33.75
30.62
27.20
24.02
21.47
19.75
18.77
18.24
17.86
17.42
16.93
16.48
16.11
15.69
14.94
13.53
11.27
8.17
4.49
0.55
-3.35
-7.03
-10.54
-14.08
-17.96
-22.49
-27.85
-33.89
-40.09
-45.60
-49.39
-50.54
-48.46
-43.02
-34.56
-23.79
-11.69
0.65
12.18
21.96
29.34
33.96
35.87
35.49
33.45
30.50
27.32
24.41
22.01
20.13
18.66
17.48
16.47
15.61
14.91
14.37
13.92
13.42
12.68
11.51
9.80
7.52
4.74
1.60
-1.77
-5.25
-8.82
-12.50
-16.39
-20.66
-25.39
-30.51
-35.68
-40.25
-43.36
-44.11
-41.85
-36.36
-27.99
-17.61
-6.44
4.28
13.52
20.70
25.62
28.43
29.42
28.86
27.04
24.27
20.98
17.69
14.89
12.87
11.67
11.13
10.96
10.92
10.87
10.67
10.22
9.32
7.86
5.78
3.23
0.41
-2.50
-5.42
-8.46
-11.84
-15.78
-20.34
-25.38
-30.47
-35.01
-38.23
-39.39
-37.89
-33.40
-26.04
-16.39
-5.44
5.59
15.49
23.37
28.78
31.72
32.51
31.63
29.54
26.65
23.38
20.09
17.16
14.83
13.17
12.07
11.34
10.76
10.19
9.54
8.70
7.58
6.03
3.99
1.48
-1.39
-4.41
-7.46
-10.52
-13.73
-17.33
-21.53
-26.42
-31.83
-37.28
-42.02
-45.14
-45.80
-43.42
-37.83
-29.43
-19.03
-7.75
3.24
12.96
20.79
26.47
30.00
31.59
31.51
30.12
27.78
24.90
21.92
19.19
16.97
15.34
14.22
13.54
13.18
13.07
13.14
13.25
13.16
12.56
11.15
8.75
5.41
1.42
-2.82
-6.93
-10.74
-14.40
-18.25
-22.72
-28.03
-34.04
-40.19
-45.61
-49.34
-50.51
-48.61
-43.54
-35.68
-25.74
-14.68
-3.48
6.96
15.91
22.90
27.67
30.20
30.69
29.51
27.19
24.28
21.29
18.58
16.31
14.50
13.02
11.77
10.59
9.40
8.09
6.58
4.79
2.58
-0.12
-3.37
-7.16
-11.35
-15.76
-20.21
-24.62
-29.09
-33.87
-39.23
-45.31
-51.94
-58.62
-64.52
-68.68
-70.19
-68.41
-63.11
-54.53
-43.29
-30.32
-16.62
-3.13
9.41
20.49
29.79
37.15
42.55
46.05
47.90
48.46
48.16
47.37
46.34
45.19
43.93
42.51
40.90
39.07
36.97
34.54
31.69
28.40
24.70
20.68
16.45
12.15
7.78
3.36
-1.18
-5.90
-10.85
-15.97
-21.04
-25.59
-28.94
-30.34
-29.09
-24.85
-17.77
-8.51
1.86
12.12
21.18
28.33
33.25
35.98
36.72
35.74
33.30
29.77
25.64
21.50
17.92
15.29
13.66
12.82
12.37
11.92
11.21
10.15
8.74
6.98
4.88
2.41
-0.41
-3.51
-6.82
-10.28
-13.92
-17.85
-22.25
-27.23
-32.72
-38.36
-43.46
-47.10
-48.34
-46.52
-41.39
-33.23
-22.79
-11.10
0.70
11.55
20.61
27.34
31.55
33.38
33.16
31.39
28.60
25.29
21.89
18.78
16.23
14.34
13.05
12.16
11.43
10.66
9.72
8.61
7.31
5.82
4.10
2.14
-0.07
-2.55
-5.35
-8.59
-12.45
-17.08
-22.52
-28.53
-34.61
-39.98
-43.73
-45.01
-43.23
-38.23
-30.32
-20.24
-9.02
2.24
12.51
21.04
27.37
31.37
33.13
32.96
31.29
28.64
25.52
22.40
19.65
17.45
15.81
14.65
13.81
13.15
12.55
11.87
10.98
9.74
8.02
5.78
3.08
0.07
-3.14
-6.51
-10.11
-14.09
-18.57
-23.59
-28.99
-34.35
-39.04
-42.26
-43.22
-41.29
-36.22
-28.27
-18.16
-7.01
3.97
13.71
21.49
27.02
30.35
31.76
31.59
30.18
27.86
24.97
21.83
18.77
16.05
13.86
12.29
11.30
10.76
10.44
10.08
9.48
8.48
7.00
5.07
2.79
0.26
-2.39
-5.15
-8.13
-11.53
-15.58
-20.38
-25.71
-31.04
-35.54
-38.26
-38.46
-35.76
-30.20
-22.25
-12.63
-2.24
7.99
17.13
24.45
29.51
32.17
32.67
31.40
28.87
25.56
21.90
18.27
15.05
12.50
10.77
9.80
9.37
9.12
8.70
7.87
6.55
4.81
2.82
0.71
-1.45
-3.71
-6.21
-9.14
-12.64
-16.74
-21.32
-26.05
-30.48
-33.89
-35.53
-34.65
-30.79
-23.96
-14.73
-4.17
6.49
16.07
23.79
29.32
32.74
34.35
34.52
33.49
31.48
28.69
25.39
21.96
18.82
16.28
14.45
13.18
12.17
11.13
9.87
8.40
6.80
5.15
3.41
1.46
-0.84
-3.53
-6.56
-9.85
-13.40
-17.36
-21.94
-27.23
-33.03
-38.71
-43.28
-45.68
-45.04
-40.96
-33.67
-23.92
-12.81
-1.51
8.91
17.68
24.34
28.76
31.05
31.49
30.46
28.33
25.45
22.16
18.79
15.70
13.15
11.33
10.20
9.56
9.11
8.56
7.71
6.47
4.84
2.83
0.48
-2.19
-5.07
-8.03
-10.98
-13.96
-17.19
-20.97
-25.48
-30.56
-35.67
-39.95
-42.45
-42.39
-39.36
-33.35
-24.80
-14.47
-3.38
7.32
16.57
23.58
28.00
29.92
29.82
28.30
25.93
23.15
20.26
17.49
15.05
13.09
11.66
10.68
9.96
9.26
8.40
7.33
6.06
4.66
3.15
1.45
-0.60
-3.14
-6.27
-10.04
-14.44
-19.38
-24.73
-30.16
-35.16
-39.06
-41.10
-40.68
-37.43
-31.38
-22.98
-13.00
-2.49
7.45
15.84
22.06
25.92
27.62
27.57
26.20
23.87
20.88
17.53
14.20
11.35
9.27
8.04
7.47
7.19
6.86
6.33
5.59
4.75
3.84
2.79
1.44
-0.40
-2.91
-6.14
-10.08
-14.63
-19.53
-24.46
-28.92
-32.39
-34.28
-34.12
-31.54
-26.46
-19.11
-10.13
-0.45
8.83
16.77
22.79
26.73
28.77
29.23
28.44
26.62
24.03
21.03
18.05
15.56
13.80
12.79
12.22
11.75
11.10
10.21
9.16
8.08
6.97
5.69
4.06
1.92
-0.82
-4.17
-8.08
-12.50
-17.25
-21.96
-26.09
-29.08
-30.51
-30.26
-28.51
-25.54
-21.59
-16.80
-11.22
-5.08
1.15
6.82
11.26
14.12
15.40
15.44
14.64
13.37
11.88
10.37
9.02
8.05
7.58
7.52
7.58
7.41
6.72
5.45
3.69
1.64
-0.57
-2.87
-5.28
-7.81
-10.48
-13.36
-16.55
-20.24
-24.55
-29.42
-34.49
-39.11
-42.49
-43.83
-42.65
-38.74
-32.32
-23.89
-14.11
-3.80
6.23
15.19
22.42
27.52
30.37
31.14
30.22
28.08
25.21
22.05
19.00
16.43
14.55
13.40
12.89
12.74
12.72
12.63
12.40
11.98
11.27
10.11
8.33
5.88
2.87
-0.47
-3.94
-7.46
-11.17
-15.25
-19.87
-25.01
-30.40
-35.56
-39.90
-42.77
-43.55
-41.74
-37.11
-29.83
-20.54
-10.29
-0.26
8.51
15.40
20.21
23.13
24.42
24.36
23.09
20.74
17.55
13.95
10.49
7.63
5.69
4.62
4.11
3.73
3.10
2.03
0.52
-1.35
-3.50
-5.96
-8.74
-11.84
-15.17
-18.64
-22.22
-26.06
-30.39
-35.40
-40.99
-46.69
-51.71
-55.09
-56.04
-54.12
-49.42
-42.45
-34.04
-25.11
-16.51
-8.85
-2.43
2.72
6.86
10.32
13.39
16.26
19.00
21.67
24.38
27.27
30.39
33.65
36.73
39.21
40.73
41.13
40.52
39.09
37.04
34.47
31.36
27.67
23.40
18.58
13.28
7.49
1.22
-5.44
-12.19
-18.47
-23.53
-26.60
-27.07
-24.60
-19.29
-11.63
-2.48
7.15
16.23
23.96
29.80
33.55
35.24
35.07
33.37
30.50
26.98
23.29
19.93
17.22
15.26
13.92
12.94
12.06
11.08
9.91
8.51
6.85
4.88
2.52
-0.23
-3.32
-6.54
-9.72
-12.74
-15.73
-18.99
-22.90
-27.66
-33.09
-38.57
-43.13
-45.70
-45.46
-42.00
-35.47
-26.51
-16.02
-5.05
5.44
14.65
22.04
27.29
30.34
31.32
30.49
28.25
25.08
21.53
18.10
15.16
12.85
11.17
9.97
9.15
8.66
8.46
8.45
8.34
7.76
6.35
3.99
0.81
-2.83
-6.54
-10.10
-13.58
-17.29
-21.55
-26.46
-31.77
-36.85
-40.83
-42.77
-41.99
-38.17
-31.44
-22.35
-11.73
-0.59
10.07
19.37
26.65
31.56
34.08
34.47
33.19
30.78
27.71
24.37
21.09
18.10
15.57
13.60
12.14
11.07
10.23
9.47
8.70
7.89
6.99
5.91
4.54
2.79
0.61
-2.02
-5.13
-8.79
-13.10
-18.12
-23.66
-29.33
-34.50
-38.42
-40.37
-39.74
-36.22
-29.85
-21.09
-10.80
-0.11
9.81
18.06
24.14
27.99
29.86
30.08
28.99
26.84
23.92
20.60
17.35
14.59
12.58
11.33
10.63
10.20
9.80
9.28
8.63
7.82
6.74
5.28
3.33
0.86
-2.04
-5.27
-8.79
-12.71
-17.13
-22.03
-27.09
-31.57
-34.52
-34.99
-32.40
-26.66
-18.35
-8.42
1.96
11.69
19.89
26.03
29.91
31.62
31.45
29.83
27.20
24.01
20.64
17.46
14.75
12.70
11.32
10.50
9.94
9.37
8.59
7.54
6.26
4.78
3.06
1.02
-1.46
-4.40
-7.78
-11.56
-15.73
-20.30
-25.25
-30.36
-35.21
-39.13
-41.31
-41.01
-37.77
-31.53
-22.76
-12.34
-1.40
8.90
17.63
24.24
28.57
30.77
31.11
29.90
27.50
24.30
20.79
17.45
14.65
12.55
11.08
10.03
9.19
8.48
7.91
7.49
7.10
6.45
5.25
3.29
0.65
-2.42
-5.64
-8.87
-12.25
-16.08
-20.63
-25.87
-31.43
-36.55
-40.32
-41.91
-40.69
-36.45
-29.41
-20.25
-9.94
0.38
9.74
17.44
23.15
26.86
28.75
29.06
28.07
26.10
23.49
20.68
18.05
15.85
14.12
12.74
11.54
10.38
9.24
8.11
6.94
5.60
3.95
1.92
-0.45
-2.96
-5.48
-8.03
-10.82
-14.18
-18.34
-23.24
-28.46
-33.35
-37.17
-39.30
-39.30
-36.90
-32.02
-24.80
-15.72
-5.58
4.53
13.55
20.69
25.61
28.35
29.23
28.59
26.75
23.98
20.65
17.22
14.13
11.76
10.22
9.36
8.89
8.49
7.89
7.01
5.80
4.33
2.66
0.86
-1.04
-3.11
-5.47
-8.28
-11.69
-15.79
-20.45
-25.33
-29.88
-33.37
-35.06
-34.35
-30.97
-25.04
-17.11
-8.06
1.10
9.45
16.33
21.43
24.72
26.33
26.49
25.40
23.26
20.37
17.09
13.90
11.21
9.31
8.24
7.77
7.54
7.15
6.36
5.11
3.53
1.80
0.05
-1.74
-3.75
-6.27
-9.54
-13.68
-18.51
-23.63
-28.39
-32.11
-34.07
-33.76
-30.90
-25.51
-17.97
-8.99
0.52
9.55
17.26
23.08
26.79
28.46
28.34
26.75
24.06
20.65
16.93
13.29
10.12
7.60
5.76
4.51
3.61
2.87
2.10
1.16
0.01
-1.39
-3.01
-4.86
-7.00
-9.60
-12.88
-16.99
-21.94
-27.41
-32.78
-37.24
-40.00
-40.40
-38.08
-33.04
-25.65
-16.57
-6.68
3.03
11.65
18.55
23.45
26.40
27.65
27.49
26.11
23.67
20.40
16.70
13.11
10.18
8.22
7.15
6.60
6.07
5.24
4.06
2.73
1.52
0.48
-0.59
-2.08
-4.38
-7.71
-12.09
-17.24
-22.81
-28.34
-33.30
-37.10
-39.11
-38.74
-35.58
-29.61
-21.22
-11.20
-0.58
9.59
18.38
25.18
29.71
31.99
32.25
30.88
28.28
24.92
21.22
17.63
14.55
12.25
10.82
10.10
9.80
9.46
8.79
7.62
5.98
4.01
1.85
-0.47
-3.02
-5.93
-9.33
-13.33
-17.95
-23.07
-28.38
-33.36
-37.29
-39.38
-39.00
-35.79
-29.83
-21.55
-11.72
-1.28
8.79
17.63
24.60
29.34
31.81
32.21
30.87
28.22
24.73
20.92
17.32
14.34
12.16
10.77
9.90
9.25
8.56
7.68
6.56
5.19
3.57
1.68
-0.50
-2.94
-5.65
-8.73
-12.30
-16.52
-21.37
-26.55
-31.39
-34.98
-36.38
-34.89
-30.32
-23.05
-13.93
-4.06
5.50
13.92
20.71
25.62
28.61
29.72
29.06
26.93
23.77
20.18
16.80
14.08
12.19
11.00
10.24
9.61
8.91
8.07
7.10
6.03
4.86
3.56
2.07
0.23
-2.15
-5.31
-9.41
-14.44
-20.03
-25.53
-30.05
-32.73
-32.92
-30.34
-25.12
-17.66
-8.65
1.13
10.77
19.46
26.46
31.28
33.75
33.99
32.36
29.37
25.55
21.44
17.51
14.19
11.73
10.13
9.18
8.44
7.53
6.19
4.45
2.51
0.60
-1.18
-2.94
-4.95
-7.54
-10.90
-15.15
-20.15
-25.62
-31.07
-35.79
-38.95
-39.72
-37.54
-32.27
-24.30
-14.49
-3.96
6.16
15.01
22.02
27.02
30.03
31.24
30.85
29.09
26.25
22.67
18.83
15.20
12.23
10.15
8.93
8.32
7.89
7.27
6.21
4.68
2.81
0.78
-1.27
-3.31
-5.43
-7.84
-10.77
-14.42
-18.89
-24.05
-29.52
-34.62
-38.48
-40.19
-39.03
-34.69
-27.38
-17.77
-6.88
4.09
14.09
22.27
28.15
31.62
32.81
32.07
29.81
26.51
22.71
18.92
15.63
13.16
11.58
10.68
10.12
9.54
8.77
7.77
6.69
5.62
4.56
3.33
1.73
-0.43
-3.27
-6.77
-10.89
-15.52
-20.52
-25.61
-30.36
-34.17
-36.41
-36.49
-34.03
-28.97
-21.66
-12.75
-3.19
6.05
14.17
20.70
25.45
28.42
29.66
29.21
27.19
23.90
19.91
15.93
12.65
10.39
9.12
8.45
7.95
7.27
6.31
5.12
3.80
2.44
1.01
-0.54
-2.37
-4.67
-7.68
-11.57
-16.35
-21.79
-27.40
-32.44
-36.10
-37.64
-36.48
-32.43
-25.74
-17.10
-7.56
1.75
9.84
16.15
20.50
22.99
23.85
23.23
21.27
18.15
14.19
9.90
5.82
2.35
-0.37
-2.48
-4.28
-6.08
-8.05
-10.27
-12.72
-15.40
-18.37
-21.73
-25.54
-29.80
-34.40
-39.22
-44.05
-48.69
-52.75
-55.64
-56.56
-54.69
-49.42
-40.58
-28.58
-14.33
0.97
16.12
30.10
42.15
51.77
58.67
62.74
64.04
62.79
59.40
54.40
48.43
42.19
36.32
31.28
27.27
24.25
21.97
20.13
18.47
16.78
14.82
12.36
9.14
5.08
0.25
-5.07
-10.62
-16.25
-21.87
-27.40
-32.46
-36.42
-38.44
-37.84
-34.34
-28.19
-20.06
-10.84
-1.37
7.60
15.45
21.68
25.91
27.98
27.96
26.19
23.16
19.43
15.51
11.82
8.70
6.31
4.66
3.62
2.94
2.38
1.77
1.04
0.24
-0.60
-1.52
-2.72
-4.46
-7.07
-10.75
-15.46
-20.89
-26.40
-31.17
-34.34
-35.15
-33.21
-28.53
-21.50
-12.85
-3.43
5.89
14.32
21.24
26.28
29.28
30.33
29.67
27.71
24.86
21.54
18.13
14.93
12.17
9.94
8.22
6.86
5.68
4.51
3.24
1.80
0.14
-1.79
-4.11
-6.91
-10.27
-14.20
-18.64
-23.37
-28.04
-32.14
-35.08
-36.27
-35.23
-31.76
-26.01
-18.40
-9.69
-0.77
7.42
14.09
18.66
20.95
21.07
19.41
16.53
12.97
9.18
5.54
2.29
-0.39
-2.39
-3.72
-4.52
-4.99
-5.43
-6.07
-7.10
-8.58
-10.47
-12.75
-15.37
-18.40
-21.89
-25.78
-29.83
-33.57
-36.31
-37.38
-36.22
-32.57
-26.52
-18.48
-9.15
0.65
9.98
17.97
23.92
27.43
28.43
27.21
24.35
20.60
16.76
13.51
11.27
10.09
9.61
9.30
8.65
7.45
5.83
4.11
2.59
1.34
0.08
-1.60
-4.13
-7.72
-12.38
-17.83
-23.62
-29.03
-33.19
-35.23
-34.44
-30.53
-23.81
-15.04
-5.30
4.30
12.84
19.63
24.26
26.56
26.61
24.75
21.55
17.69
13.81
10.30
7.28
4.66
2.23
-0.13
-2.40
-4.42
-6.04
-7.17
-7.91
-8.50
-9.26
-10.48
-12.39
-15.05
-18.32
-21.91
-25.32
-27.95
-29.14
-28.38
-25.37
-20.13
-13.06
-4.83
3.75
11.87
18.81
24.07
27.43
28.91
28.81
27.58
25.83
24.07
22.68
21.80
21.29
20.83
20.06
18.67
16.60
14.00
11.20
8.56
6.28
4.29
2.27
-0.31
-3.96
-8.94
-15.15
-22.08
-28.85
-34.43
-37.81
-38.24
-35.39
-29.37
-20.75
-10.40
0.64
11.33
20.75
28.23
33.40
36.15
36.68
35.37
32.75
29.35
25.66
22.05
18.75
15.84
13.28
10.95
8.73
6.51
4.24
1.96
-0.22
-2.21
-3.96
-5.58
-7.33
-9.61
-12.83
-17.24
-22.68
-28.53
-33.81
-37.36
-38.25
-35.91
-30.35
-22.07
-11.86
-0.72
10.30
20.22
28.17
33.47
35.85
35.40
32.64
28.31
23.28
18.36
14.15
11.03
9.08
8.19
8.03
8.17
8.16
7.67
6.52
4.76
2.52
-0.08
-2.99
-6.27
-10.10
-14.54
-19.51
-24.67
-29.40
-32.88
-34.27
-32.88
-28.46
-21.19
-11.74
-1.11
9.58
19.35
27.51
33.68
37.77
39.88
40.16
38.82
36.15
32.54
28.48
24.51
21.10
18.55
16.83
15.71
14.77
13.60
11.97
9.88
7.55
5.22
3.06
0.99
-1.22
-3.96
-7.52
-12.07
-17.58
-23.81
-30.36
-36.67
-42.01
-45.52
-46.38
-43.99
-38.18
-29.31
-18.22
-6.05
6.00
16.91
25.86
32.38
36.32
37.82
37.30
35.32
32.54
29.48
26.51
23.87
21.63
19.85
18.53
17.61
16.90
16.10
14.91
13.08
10.57
7.47
3.97
0.30
-3.42
-7.13
-10.87
-14.73
-18.88
-23.46
-28.55
-34.00
-39.34
-43.77
-46.34
-46.23
-42.94
-36.49
-27.37
-16.40
-4.55
7.20
17.91
26.81
33.30
37.15
38.47
37.70
35.45
32.36
28.98
25.63
22.56
19.90
17.72
16.06
14.88
14.09
13.52
12.99
12.29
11.24
9.66
7.43
4.52
1.00
-2.93
-7.00
-10.93
-14.56
-17.82
-20.86
-23.96
-27.43
-31.46
-35.87
-40.13
-43.32
-44.39
-42.53
-37.40
-29.34
-19.22
-8.21
2.53
12.11
20.01
26.00
30.06
32.27
32.79
31.83
29.71
26.80
23.50
20.16
17.07
14.37
12.16
10.44
9.20
8.42
8.03
7.90
7.84
7.58
6.86
5.52
3.54
0.97
-2.02
-5.35
-8.97
-12.92
-17.27
-22.03
-27.03
-31.88
-35.95
-38.44
-38.63
-36.05
-30.64
-22.87
-13.53
-3.62
5.93
14.35
21.13
26.00
28.89
29.89
29.28
27.49
25.00
22.33
19.90
17.97
16.65
15.88
15.49
15.22
14.81
14.06
12.87
11.25
9.26
6.97
4.41
1.57
-1.52
-4.77
-8.04
-11.18
-14.17
-17.14
-20.36
-24.14
-28.63
-33.67
-38.70
-42.86
-45.21
-44.93
-41.59
-35.25
-26.44
-16.04
-5.10
5.35
14.44
21.58
26.49
29.12
29.73
28.71
26.59
23.91
21.17
18.71
16.75
15.31
14.25
13.40
12.57
11.64
10.61
9.49
8.30
7.00
5.48
3.64
1.41
-1.21
-4.08
-6.99
-9.77
-12.31
-14.65
-16.98
-19.59
-22.76
-26.62
-31.03
-35.56
-39.47
-42.01
-42.49
-40.53
-36.12
-29.59
-21.49
-12.46
-3.16
5.78
13.70
20.03
24.33
26.54
26.89
25.93
24.30
22.48
20.73
19.08
17.47
15.85
14.29
12.89
11.73
10.80
10.03
9.30
8.51
7.58
6.44
5.01
3.23
1.03
-1.57
-4.50
-7.62
-10.79
-13.93
-17.06
-20.31
-23.84
-27.74
-31.83
-35.71
-38.70
-40.08
-39.27
-36.01
-30.38
-22.84
-14.06
-4.86
3.88
11.43
17.28
21.18
23.19
23.57
22.71
21.01
18.83
16.46
14.20
12.30
10.91
10.08
9.67
9.45
9.17
8.65
7.83
6.75
5.43
3.89
2.13
0.18
-1.90
-3.99
-6.02
-7.98
-10.03
-12.43
-15.42
-19.08
-23.28
-27.60
-31.43
-34.08
-34.92
-33.50
-29.69
-23.68
-16.04
-7.53
1.01
8.83
15.36
20.30
23.55
25.16
25.28
24.11
21.98
19.29
16.53
14.09
12.27
11.09
10.42
9.99
9.54
8.97
8.28
7.55
6.78
5.84
4.46
2.40
-0.43
-3.88
-7.63
-11.30
-14.63
-17.60
-20.45
-23.52
-27.11
-31.27
-35.74
-39.92
-43.01
-44.23
-43.02
-39.18
-32.93
-24.85
-15.70
-6.29
2.61
10.37
16.53
20.84
23.29
24.07
23.56
22.15
20.20
17.98
15.72
13.57
11.70
10.18
9.01
8.10
7.28
6.43
5.43
4.24
2.83
1.18
-0.77
-3.04
-5.60
-8.36
-11.19
-14.01
-16.80
-19.68
-22.85
-26.60
-31.14
-36.53
-42.53
-48.59
-53.87
-57.46
-58.63
-57.03
-52.76
-46.32
-38.45
-29.96
-21.56
-13.85
-7.25
-2.00
1.83
4.39
6.02
7.15
8.25
9.77
11.97
14.98
18.71
22.92
27.29
31.51
35.36
38.74
41.59
43.74
44.92
44.78
43.06
39.79
35.28
30.08
24.73
19.58
14.71
10.02
5.34
0.55
-4.44
-9.63
-15.01
-20.41
-25.53
-29.84
-32.69
-33.40
-31.45
-26.68
-19.36
-10.19
-0.14
9.67
18.29
25.02
29.59
32.10
32.87
32.30
30.71
28.36
25.44
22.22
19.02
16.17
13.87
12.18
11.01
10.21
9.64
9.26
8.99
8.72
8.22
7.19
5.37
2.71
-0.61
-4.21
-7.73
-10.96
-13.92
-16.87
-20.17
-24.04
-28.44
-32.99
-36.98
-39.56
-39.94
-37.61
-32.48
-24.87
-15.48
-5.16
5.17
14.69
22.72
28.79
32.64
34.26
33.88
31.95
29.10
25.92
22.91
20.37
18.34
16.69
15.29
14.06
13.06
12.42
12.22
12.42
12.73
12.81
12.24
10.77
8.34
5.10
1.31
-2.78
-6.95
-11.05
-15.04
-18.90
-22.72
-26.67
-30.90
-35.50
-40.29
-44.70
-47.89
-48.88
-46.85
-41.44
-32.89
-22.03
-10.06
1.72
12.26
20.83
27.16
31.31
33.55
34.21
33.56
31.86
29.37
26.43
23.36
20.50
18.05
16.09
14.65
13.68
13.17
13.05
13.24
13.54
13.63
13.18
11.90
9.70
6.69
3.17
-0.44
-3.83
-6.90
-9.81
-12.91
-16.57
-21.00
-26.11
-31.53
-36.61
-40.58
-42.62
-42.08
-38.57
-32.13
-23.24
-12.76
-1.75
8.76
17.92
25.17
30.23
33.09
33.90
33.02
30.89
28.06
25.02
22.20
19.86
18.13
17.01
16.40
16.17
16.12
16.09
15.94
15.54
14.82
13.69
12.09
9.94
7.22
4.00
0.41
-3.32
-6.99
-10.52
-13.98
-17.59
-21.60
-26.13
-31.02
-35.81
-39.76
-42.06
-41.97
-38.99
-33.07
-24.59
-14.33
-3.32
7.32
16.66
24.05
29.23
32.21
33.26
32.73
30.99
28.44
25.47
22.44
19.67
17.36
15.59
14.34
13.46
12.82
12.25
11.64
10.89
9.91
8.60
6.88
4.70
2.12
-0.71
-3.64
-6.54
-9.45
-12.54
-16.09
-20.32
-25.19
-30.34
-35.10
-38.62
-40.08
-38.95
-35.04
-28.60
-20.21
-10.68
-0.88
8.40
16.49
22.95
27.56
30.28
31.28
30.79
29.15
26.71
23.84
20.91
18.19
15.88
14.00
12.49
11.24
10.15
9.17
8.31
7.55
6.79
5.83
4.43
2.42
-0.25
-3.41
-6.81
-10.20
-13.48
-16.75
-20.23
-24.17
-28.65
-33.49
-38.20
-42.07
-44.31
-44.28
-41.58
-36.17
-28.40
-18.89
-8.50
1.86
11.34
19.28
25.26
29.15
31.03
31.17
29.92
27.68
24.80
21.63
18.49
15.63
13.24
11.42
10.15
9.33
8.87
8.63
8.48
8.30
7.88
7.01
5.49
3.23
0.33
-2.98
-6.40
-9.69
-12.82
-15.99
-19.53
-23.72
-28.62
-33.94
-39.03
-43.08
-45.31
-45.15
-42.38
-37.08
-29.58
-20.46
-10.43
-0.32
9.04
16.90
22.77
26.44
28.02
27.84
26.30
23.87
20.94
17.91
15.11
12.80
11.12
10.04
9.45
9.18
9.08
9.00
8.81
8.30
7.25
5.51
3.05
0.06
-3.18
-6.41
-9.55
-12.73
-16.17
-20.03
-24.26
-28.55
-32.43
-35.28
-36.52
-35.66
-32.41
-26.78
-19.17
-10.29
-1.10
7.51
14.88
20.66
24.80
27.34
28.32
27.76
25.75
22.56
18.70
14.79
11.45
9.07
7.73
7.17
7.00
6.84
6.47
5.81
4.92
3.80
2.41
0.64
-1.61
-4.35
-7.51
-11.00
-14.79
-18.89
-23.35
-28.03
-32.63
-36.59
-39.19
-39.79
-37.89
-33.39
-26.54
-17.95
-8.48
0.93
9.42
16.39
21.49
24.72
26.22
26.28
25.23
23.41
21.15
18.75
16.48
14.47
12.78
11.34
10.08
8.96
7.95
7.05
6.23
5.34
4.22
2.69
0.63
-2.00
-5.12
-8.66
-12.54
-16.76
-21.35
-26.34
-31.66
-37.08
-42.16
-46.31
-48.80
-48.93
-46.16
-40.33
-31.69
-21.01
-9.38
2.02
12.13
20.28
26.18
29.91
31.77
32.11
31.29
29.58
27.28
24.66
22.05
19.73
17.88
16.53
15.56
14.77
13.99
13.11
12.08
10.89
9.41
7.46
4.89
1.64
-2.12
-6.09
-9.95
-13.54
-16.94
-20.48
-24.50
-29.23
-34.60
-40.18
-45.25
-48.90
-50.27
-48.67
-43.77
-35.70
-25.07
-12.90
-0.40
11.24
21.09
28.62
33.70
36.47
37.23
36.34
34.15
31.08
27.65
24.38
21.70
19.84
18.73
18.11
17.70
17.31
16.97
16.75
16.64
16.44
15.75
14.16
11.42
7.60
3.02
-1.90
-6.83
-11.63
-16.39
-21.28
-26.47
-32.03
-37.82
-43.49
-48.44
-51.85
-52.84
-50.69
-45.07
-36.18
-24.79
-12.00
0.97
13.00
23.27
31.22
36.66
39.61
40.32
39.21
36.76
33.55
30.06
26.72
23.82
21.50
19.77
18.54
17.65
16.98
16.43
15.90
15.31
14.48
13.22
11.33
8.72
5.44
1.68
-2.29
-6.29
-10.23
-14.21
-18.47
-23.29
-28.85
-35.12
-41.77
-48.07
-52.98
-55.33
-54.09
-48.75
-39.42
-26.95
-12.71
1.80
15.22
26.61
35.48
41.69
45.34
46.62
45.85
43.45
40.01
36.23
32.80
30.18
28.53
27.65
27.14
26.60
25.79
24.75
23.62
22.57
21.58
20.39
18.66
16.06
12.47
8.03
3.11
-1.89
-6.65
-11.08
-15.29
-19.51
-24.00
-28.92
-34.34
-40.24
-46.45
-52.60
-58.05
-61.87
-63.03
-60.70
-54.49
-44.65
-32.05
-17.92
-3.59
9.79
21.41
30.80
37.75
42.26
44.50
44.78
43.56
41.38
38.83
36.45
34.62
33.48
32.94
32.71
32.47
31.98
31.21
30.25
29.23
28.15
26.85
25.03
22.47
19.05
14.88
10.21
5.31
0.39
-4.44
-9.15
-13.79
-18.44
-23.28
-28.55
-34.46
-41.03
-47.93
-54.45
-59.52
-62.04
-61.09
-56.24
-47.59
-35.76
-21.72
-6.66
8.18
21.61
32.64
40.62
45.35
47.08
46.36
43.87
40.28
36.23
32.27
28.87
26.34
24.72
23.80
23.18
22.47
21.47
20.22
18.88
17.62
16.36
14.80
12.54
9.33
5.17
0.38
-4.54
-9.17
-13.32
-17.17
-21.08
-25.50
-30.67
-36.52
-42.55
-47.97
-51.87
-53.31
-51.61
-46.41
-37.80
-26.34
-12.99
1.00
14.34
25.92
34.99
41.20
44.57
45.36
44.00
41.02
37.01
32.64
28.56
25.27
22.99
21.66
21.01
20.69
20.46
20.22
19.95
19.62
19.01
17.76
15.50
12.02
7.42
2.08
-3.52
-8.98
-14.13
-19.06
-24.05
-29.47
-35.55
-42.29
-49.31
-55.83
-60.76
-62.93
-61.37
-55.60
-45.82
-32.87
-18.05
-2.78
11.62
24.15
34.16
41.30
45.54
47.04
46.20
43.54
39.73
35.43
31.25
27.58
24.60
22.23
20.28
18.54
16.89
15.32
13.91
12.69
11.60
10.47
9.03
6.96
4.08
0.34
-4.12
-9.03
-14.09
-19.12
-24.17
-29.44
-35.17
-41.41
-47.82
-53.67
-57.89
-59.42
-57.43
-51.59
-42.17
-29.94
-16.08
-1.87
11.47
23.00
32.05
38.30
41.70
42.42
40.86
37.62
33.40
28.95
24.86
21.49
18.94
17.16
16.06
15.60
15.71
16.22
16.77
16.85
15.95
13.75
10.22
5.64
0.49
-4.73
-9.70
-14.29
-18.60
-22.84
-27.29
-32.19
-37.63
-43.42
-49.12
-54.01
-57.13
-57.50
-54.39
-47.50
-37.18
-24.33
-10.29
3.57
16.07
26.42
34.23
39.40
41.97
42.09
40.04
36.31
31.60
26.72
22.36
18.94
16.51
14.86
13.70
12.84
12.22
11.85
11.69
11.62
11.45
11.02
10.18
8.65
6.00
1.64
-4.84
-13.46
-23.73
-34.71
-45.39
-54.89
-62.56
-67.83
-70.08
-68.68
-63.17
-53.68
-40.98
-26.42
-11.54
2.37
14.40
24.13
31.38
36.16
38.53
38.66
36.89
33.72
29.79
25.84
22.47
20.13
18.94
18.71
19.00
19.33
19.23
18.46
16.91
14.58
11.49
7.67
3.20
-1.70
-6.75
-11.68
-16.42
-21.15
-26.29
-32.18
-38.90
-46.00
-52.59
-57.49
-59.56
-58.04
-52.65
-43.64
-31.72
-17.95
-3.59
10.09
21.96
31.24
37.59
41.12
42.20
41.31
38.91
35.40
31.16
26.62
22.27
18.53
15.65
13.65
12.34
11.44
10.66
9.80
8.70
7.25
5.32
2.82
-0.24
-3.77
-7.55
-11.43
-15.37
-19.61
-24.46
-30.19
-36.75
-43.63
-49.90
-54.37
-55.96
-53.96
-48.19
-39.03
-27.33
-14.17
-0.73
11.84
22.62
30.96
36.58
39.60
40.39
39.47
37.35
34.43
30.99
27.29
23.60
20.22
17.43
15.35
13.96
13.09
12.52
12.04
11.43
10.52
9.07
6.89
3.86
0.01
-4.50
-9.46
-14.67
-20.10
-25.84
-32.08
-38.84
-45.82
-52.26
-57.06
-59.00
-57.16
-51.21
-41.54
-29.18
-15.48
-1.76
10.89
21.72
30.25
36.30
39.82
41.03
40.29
38.08
34.87
31.09
27.08
23.08
19.34
16.02
13.24
10.93
8.95
7.06
5.10
2.98
0.66
-1.82
-4.51
-7.47
-10.80
-14.59
-18.87
-23.70
-29.16
-35.29
-41.98
-48.80
-54.96
-59.32
-60.75
-58.42
-52.14
-42.49
-30.70
-18.30
-6.78
2.75
9.65
13.72
15.14
14.29
11.77
8.28
4.52
1.24
-0.98
-1.72
-0.83
1.64
5.35
9.82
14.44
18.66
22.07
24.47
25.91
26.53
26.46
25.70
24.13
21.52
17.67
12.48
6.00
-1.44
-9.28
-16.64
-22.50
-25.82
-25.83
-22.20
-15.17
-5.56
5.52
16.82
27.20
35.74
41.84
45.24
46.04
44.64
41.56
37.40
32.72
27.98
23.61
19.95
17.22
15.44
14.41
13.75
13.06
12.01
10.47
8.43
5.90
2.90
-0.60
-4.55
-8.88
-13.52
-18.48
-23.90
-29.95
-36.58
-43.44
-49.75
-54.43
-56.40
-54.82
-49.34
-40.17
-28.03
-14.08
0.30
13.76
25.20
33.93
39.76
42.88
43.67
42.59
40.10
36.62
32.64
28.65
25.05
22.05
19.65
17.71
16.07
14.66
13.48
12.54
11.72
10.76
9.33
7.14
4.10
0.31
-3.97
-8.41
-12.80
-17.09
-21.44
-26.10
-31.29
-37.04
-43.09
-48.75
-53.06
-54.97
-53.59
-48.50
-39.86
-28.45
-15.42
-2.05
10.53
21.47
30.24
36.61
40.50
42.03
41.42
39.14
35.83
32.21
28.93
26.41
24.74
23.77
23.16
22.58
21.83
20.88
19.83
18.85
18.00
17.19
16.12
14.44
11.82
8.13
3.47
-1.90
-7.64
-13.55
-19.52
-25.62
-31.94
-38.54
-45.32
-51.93
-57.72
-61.84
-63.33
-61.39
-55.65
-46.36
-34.25
-20.50
-6.38
6.93
18.52
27.76
34.35
38.26
39.73
39.20
37.23
34.39
31.21
28.09
25.31
23.00
21.17
19.76
18.66
17.81
17.16
16.62
16.06
15.24
13.88
11.76
8.83
5.26
1.37
-2.51
-6.15
-9.54
-12.86
-16.38
-20.37
-24.98
-30.14
-35.51
-40.49
-44.25
-45.96
-44.90
-40.68
-33.33
-23.37
-11.71
0.43
11.82
21.40
28.51
32.96
35.00
35.18
34.08
32.18
29.85
27.33
24.86
22.64
20.83
19.47
18.46
17.57
16.58
15.36
13.89
12.22
10.35
8.20
5.62
2.53
-1.05
-4.91
-8.74
-12.30
-15.55
-18.76
-22.42
-27.04
-32.84
-39.57
-46.40
-52.07
-55.27
-54.97
-50.75
-42.89
-32.26
-20.02
-7.33
4.81
15.65
24.59
31.26
35.40
36.99
36.25
33.69
29.98
25.86
21.99
18.80
16.43
14.78
13.61
12.72
11.97
11.35
10.84
10.40
9.85
8.94
7.41
5.10
2.04
-1.53
-5.26
-8.83
-12.07
-15.08
-18.18
-21.84
-26.43
-31.99
-38.11
-43.92
-48.27
-49.99
-48.26
-42.72
-33.70
-22.02
-8.93
4.20
16.12
25.93
33.19
37.97
40.72
42.00
42.26
41.60
39.77
36.38
31.20
24.46
16.84
9.30
2.71
-2.42
-6.05
-8.44
-9.96
-10.90
-11.49
-11.96
-12.56
-13.55
-15.07
-17.03
-19.16
-21.18
-23.00
-24.78
-26.97
-29.93
-33.80
-38.25
-42.54
-45.70
-46.72
-44.91
-39.98
-32.15
-22.04
-10.57
1.19
12.18
21.55
28.68
33.37
35.79
36.40
35.79
34.46
32.71
30.58
28.02
25.01
21.71
18.47
15.66
13.49
11.95
10.82
9.85
8.90
7.89
6.80
5.46
3.64
1.11
-2.13
-5.82
-9.60
-13.19
-16.65
-20.32
-24.68
-29.94
-35.84
-41.59
-46.05
-48.08
-46.78
-41.81
-33.43
-22.42
-9.94
2.69
14.25
23.86
30.99
35.49
37.48
37.25
35.22
31.90
27.92
23.89
20.41
17.82
16.23
15.41
15.02
14.67
14.07
13.08
11.69
9.90
7.70
5.09
2.12
-1.09
-4.41
-7.70
-10.98
-14.39
-18.16
-22.54
-27.55
-32.97
-38.27
-42.66
-45.27
-45.28
-42.12
-35.65
-26.19
-14.54
-1.85
10.59
21.58
30.12
35.65
38.02
37.52
34.77
30.59
25.87
21.36
17.59
14.80
12.93
11.75
10.93
10.16
9.24
8.04
6.51
4.62
2.32
-0.39
-3.49
-6.83
-10.16
-13.22
-15.82
-18.02
-20.11
-22.58
-25.97
-30.58
-36.35
-42.74
-48.83
-53.44
-55.51
-54.26
-49.41
-41.21
-30.35
-17.85
-4.86
7.53
18.37
26.96
32.88
36.05
36.67
35.22
32.37
28.87
25.37
22.37
20.05
18.36
17.05
15.86
14.60
13.26
11.90
10.60
9.28
7.79
5.87
3.37
0.27
-3.33
-7.28
-11.52
-16.10
-21.14
-26.74
-32.82
-39.03
-44.74
-49.12
-51.22
-50.29
-45.90
-38.17
-27.74
-15.69
-3.18
8.70
19.15
27.67
33.96
37.92
39.56
39.12
36.98
33.64
29.68
25.58
21.75
18.42
15.75
13.76
12.37
11.43
10.71
9.98
9.04
7.77
6.12
4.11
1.79
-0.80
-3.63
-6.83
-10.62
-15.29
-21.02
-27.72
-34.87
-41.57
-46.66
-49.07
-48.09
-43.56
-35.89
-25.95
-14.80
-3.58
6.75
15.44
22.05
26.34
28.30
28.05
25.82
22.00
17.14
11.91
6.97
2.84
-0.32
-2.69
-4.71
-6.90
-9.61
-12.97
-16.91
-21.27
-25.98
-31.13
-36.96
-43.83
-52.05
-61.79
-72.93
-85.14
-97.83
-110.40
-122.31
-133.14
-142.68
-150.91
-158.10
-164.74
-171.34
-178.09
-184.58
-189.73
-192.23
-191.16
-186.61
-179.95
-173.30
-168.58
-166.51
-166.16
-165.09
-160.08
-148.06
-126.87
-95.79
-55.46
-7.57
45.99
103.73
164.93
229.39
296.53
364.71
430.92
491.51
543.21
583.95
612.68
628.65
630.52
616.38
584.65
535.34
470.90
395.71
314.88
232.88
152.90
77.19
7.70
-53.47
-104.51
-144.59
-174.50
-196.25
-211.99
-222.77
-227.98
-225.75
-214.26
-193.19
-164.29
-131.08
-97.84
-68.56
-45.98
-31.29
-23.96
-22.14
-23.13
-24.24
-23.76
-21.82
-20.59
-23.71
-34.97
-56.56
-87.62
-124.21
-160.50
-190.82
-211.37
-220.75
-219.09
-206.83
-183.92
-150.20
-106.68
-56.58
-5.31
41.11
78.02
103.75
119.53
128.13
132.27
133.52
132.17
128.05
121.30
112.76
103.95
96.36
90.87
87.35
84.62
81.05
75.27
66.85
56.46
45.42
34.78
24.80
14.95
4.58
-6.22
-16.17
-23.15
-25.06
-20.92
-11.46
1.04
13.58
23.07
27.36
25.62
18.16
6.07
-9.31
-26.94
-46.33
-67.46
-90.48
-115.14
-140.46
-164.64
-185.44
-200.72
-209.12
-210.34
-205.11
-195.03
-182.49
-170.55
-162.51
-160.81
-165.81
-175.05
-183.81
-186.86
-180.62
-164.49
-140.55
-111.91
-80.68
-46.97
-9.29
33.97
83.23
137.24
193.67
249.95
303.68
352.74
395.19
429.53
455.11
472.49
482.60
486.07
482.56
470.77
449.10
416.50
373.08
320.00
259.44
194.10
127.33
63.35
6.88
-37.96
-69.26
-88.30
-99.41
-108.02
-119.21
-135.89
-158.06
-183.37
-208.81
-232.40
-254.14
-276.07
-300.76
-331.88
-372.61
-423.42
-480.32
-535.23
-578.23
-600.69
-598.30
-570.56
-523.24
-465.46
-405.02
-345.13
-284.82
-221.65
-154.24
-83.67
-10.06
63.67
133.38
196.72
254.92
311.67
370.57
433.73
499.91
567.90
629.87
673.04
685.11
659.55
597.02
504.21
392.43
251.87
99.18
-33.71
-121.52
-160.99
-165.24
-151.12
-131.40
-111.04
-90.62
-65.71
-35.29
-1.87
31.99
67.11
107.25
151.85
199.62
247.01
292.24
331.13
357.80
367.47
358.59
332.73
293.47
246.27
196.76
151.54
113.67
82.36
55.06
30.13
7.61
-11.62
-26.64
-38.35
-48.51
-60.42
-77.32
-100.21
-127.02
-153.74
-176.41
-192.57
-202.27
-207.23
-210.31
-214.54
-222.12
-233.85
-249.06
-265.90
-281.46
-292.37
-295.48
-288.58
-271.29
-245.54
-215.65
-187.74
-168.43
-163.00
-173.52
-197.57
-228.46
-257.22
-275.80
-280.10
-271.41
-255.30
-238.66
-226.08
-217.92
-210.67
-199.19
-179.39
-149.80
-111.26
-65.54
-14.10
41.60
98.89
152.58
195.06
218.11
215.82
186.87
134.80
66.36
-11.02
-90.80
-167.33
-234.81
-286.50
-315.55
-317.00
-290.08
-238.96
-171.53
-96.49
-20.65
52.12
120.07
181.89
235.69
279.21
311.08
331.57
342.15
344.19
337.33
319.08
285.73
234.68
167.19
90.01
15.00
-43.65
-73.79
-69.59
-33.88
22.91
86.69
144.95
190.61
223.12
246.19
264.46
280.97
296.83
312.46
328.65
346.46
365.60
383.03
393.05
389.36
367.72
328.23
275.36
215.94
156.68
101.96
53.12
9.11
-32.47
-74.38
-119.32
-169.63
-226.71
-289.82
-355.00
-415.06
-461.07
-485.24
-483.82
-458.43
-414.97
-360.72
-301.29
-239.39
-176.21
-113.85
-57.44
-14.75
6.38
1.35
-29.49
-81.52
-148.23
-223.38
-301.50
-377.01
-443.18
-492.43
-518.26
-517.94
-493.82
-452.60
-402.60
-350.69
-300.62
-253.12
-207.46
-163.02
-120.06
-79.36
-41.45
-5.98
28.40
63.39
100.33
139.43
179.21
216.92
249.57
275.17
293.80
307.50
319.17
330.99
343.16
353.71
359.54
357.90
347.58
329.10
304.19
274.75
242.38
208.25
173.46
139.47
108.22
81.76
61.72
48.79
42.35
40.81
42.23
45.21
49.52
55.83
65.08
77.44
91.72
105.52
116.27
122.34
124.03
123.65
124.78
130.91
144.00
163.74
187.71
212.50
235.10
253.76
267.97
277.50
281.38
277.39
262.72
235.37
195.48
145.53
89.27
30.05
-30.43
-91.88
-154.11
-215.52
-272.61
-321.17
-358.09
-382.97
-397.99
-406.26
-409.65
-407.80
-398.81
-381.56
-357.73
-332.07
-310.48
-296.66
-289.42
-282.37
-266.51
-234.71
-185.63
-124.96
-63.20
-11.33
23.37
39.25
39.08
26.92
5.32
-25.23
-64.47
-109.39
-152.66
-183.78
-192.87
-174.79
-131.36
-70.54
-2.83
62.73
121.25
172.24
218.25
262.60
308.04
356.52
409.38
467.13
528.54
589.40
642.41
678.76
690.82
675.03
633.42
572.82
502.55
431.38
365.37
307.26
257.25
214.33
177.46
145.94
119.20
96.37
76.00
56.20
35.29
12.49
-11.49
-34.77
-55.07
-71.16
-83.90
-96.32
-112.71
-137.29
-172.95
-220.45
-277.76
-339.77
-398.57
-444.54
-468.76
-466.18
-437.95
-391.86
-339.96
-294.25
-262.60
-246.71
-243.04
-245.98
-251.16
-257.27
-265.53
-277.89
-294.84
-314.53
-333.35
-347.57
-355.09
-356.46
-354.35
-352.16
-352.39
-355.84
-361.69
-368.55
-375.35
-381.65
-387.19
-391.02
-391.04
-384.50
-369.09
-344.12
-311.03
-272.83
-232.97
-194.17
-157.80
-123.98
-92.00
-60.94
-29.91
1.54
33.59
66.16
99.07
132.38
166.69
203.15
242.91
286.30
331.69
375.20
411.25
434.19
440.35
429.45
404.81
372.09
337.41
305.50
278.94
258.25
242.82
231.61
223.45
216.97
210.40
201.63
188.79
170.90
148.31
122.72
96.89
73.73
55.59
43.74
38.13
37.62
40.40
44.42
47.67
48.28
44.75
36.43
24.11
10.37
-0.59
-4.02
3.72
23.67
53.71
89.32
125.27
157.37
183.32
202.27
213.73
216.64
209.30
190.50
161.05
124.68
87.66
57.16
38.86
35.09
44.21
61.73
82.16
101.04
115.89
126.11
132.13
134.55
133.87
130.88
127.11
124.82
126.22
132.21
141.49
150.59
155.02
151.25
138.56
119.79
100.70
87.86
86.25
97.65
120.43
150.73
184.07
216.62
245.55
268.62
283.84
289.70
285.87
273.85
256.98
239.41
224.62
214.20
207.53
202.53
196.81
188.68
177.54
163.57
147.20
128.54
107.21
82.46
53.57
20.33
-16.75
-56.43
-97.10
-137.21
-175.71
-212.25
-247.16
-281.38
-316.14
-352.62
-391.31
-431.42
-470.45
-504.30
-528.22
-538.21
-532.50
-512.46
-482.40
-448.28
-415.74
-388.40
-367.08
-350.17
-334.93
-318.99
-301.31
-282.36
-263.56
-246.42
-231.91
-220.26
-211.31
-204.93
-201.12
-199.83
-200.68
-202.75
-204.87
-206.45
-208.05
-211.52
-219.19
-232.63
-251.61
-273.95
-296.50
-316.59
-333.13
-346.55
-357.70
-366.59
-371.89
-371.62
-364.48
-350.86
-332.69
-312.17
-290.26
-265.96
-237.07
-201.75
-160.07
-114.17
-67.27
-21.84
21.86
65.96
113.80
168.27
230.50
299.41
371.78
442.71
506.04
555.04
583.89
589.73
574.81
546.89
517.22
496.37
489.83
495.76
505.99
510.01
499.53
471.24
426.76
370.08
304.51
230.99
148.96
59.00
-34.71
-123.78
-197.97
-249.36
-276.02
-282.97
-279.90
-276.27
-276.83
-279.50
-277.11
-261.51
-227.71
-175.94
-111.00
-39.68
31.76
98.94
159.11
209.93
248.52
271.48
275.72
260.22
227.55
184.17
139.26
101.93
78.15
68.58
68.74
71.37
70.00
61.76
48.20
33.54
22.02
15.50
12.79
10.67
5.76
-4.31
-20.78
-44.53
-76.35
-116.26
-161.95
-208.00
-247.14
-273.48
-285.87
-289.27
-292.43
-303.04
-323.05
-347.05
-365.06
-367.68
-350.76
-316.94
-273.23
-226.66
-180.93
-135.92
-90.02
-43.10
2.17
41.44
71.42
92.24
107.63
122.96
142.23
165.92
190.77
211.67
224.43
227.66
223.08
214.19
204.39
195.56
187.89
180.65
173.28
166.13
160.49
158.05
159.82
165.37
172.73
178.90
180.96
177.14
167.24
152.26
133.40
111.16
85.13
54.65
19.86
-17.46
-53.89
-85.33
-108.32
-120.97
-123.19
-116.19
-101.57
-81.04
-56.68
-31.73
-10.90
0.42
-1.81
-17.99
-43.58
-69.99
-87.61
-89.56
-74.21
-45.34
-9.75
25.98
57.91
85.14
108.38
127.80
141.81
147.38
141.63
123.48
94.71
59.79
24.79
-4.12
-22.52
-28.86
-24.49
-12.52
3.82
22.44
42.45
63.09
82.75
98.32
106.16
104.17
93.48
78.38
64.68
56.75
55.59
59.50
64.29
65.37
59.81
47.63
31.41
15.67
4.99
2.79
12.25
33.74
64.72
100.88
137.88
172.03
201.29
223.96
238.33
245.64
246.61
241.30
230.07
215.10
200.11
190.62
190.54
200.69
221.79
250.10
278.21
298.04
304.64
297.30
280.71
260.70
221.09
158.14
81.06
6.70
-52.70
-90.02
-114.69
-133.71
-151.20
-169.72
-186.06
-198.54
-208.66
-220.26
-237.05
-261.66
-293.78
-332.71
-377.45
-423.14
-464.13
-494.58
-509.38
-505.28
-483.07
-446.86
-404.13
-362.41
-323.99
-287.27
-248.85
-206.80
-162.64
-121.72
-89.90
-71.25
-65.58
-67.44
-69.86
-67.85
-60.52
-50.85
-43.50
-41.39
-44.23
-48.49
-48.93
-41.70
-26.38
-6.08
14.39
30.88
42.07
49.47
56.06
64.17
73.88
82.91
87.99
86.75
79.14
67.53
55.54
46.35
41.46
40.29
40.97
41.40
40.26
37.31
33.26
29.18
25.97
23.95
22.80
21.67
19.59
15.89
10.52
4.02
-2.72
-8.97
-14.32
-18.72
-22.12
-24.21
-24.35
-21.81
-16.25
-7.91
2.46
13.95
25.81
37.48
48.28
57.19
62.99
64.65
62.04
56.09
48.59
41.53
36.30
33.37
32.27
32.12
32.11
31.81
31.13
30.08
28.61
26.61
23.99
20.80
17.16
13.23
9.05
4.53
-0.46
-5.95
-11.78
-17.53
-22.66
-26.53
-28.67
-28.76
-26.60
-22.13
-15.38
-6.59
3.71
14.74
25.56
35.24
42.98
48.24
50.77
50.61
48.10
43.86
38.74
33.66
29.36
26.35
24.82
24.67
25.66
27.40
29.39
31.00
31.52
30.42
27.48
22.99
17.62
12.17
7.23
2.91
-1.05
-5.15
-9.79
-15.16
-21.17
-27.54
-33.84
-39.50
-43.75
-45.66
-44.36
-39.35
-30.79
-19.49
-6.81
5.71
16.70
25.10
30.38
32.44
31.68
28.93
25.23
21.52
18.35
15.80
13.62
11.58
9.69
8.31
7.87
8.54
10.04
11.68
12.60
12.13
10.16
7.15
4.02
1.83
1.25
2.37
4.47
6.35
6.71
4.69
0.17
-6.19
-13.14
-19.10
-22.57
-22.62
-19.34
-14.17
-9.70
-8.90
-13.85
-24.68
-39.15
-53.27
-62.82
-65.03
-59.54
-48.32
-34.45
-20.61
-8.09
3.10
13.33
22.50
29.70
33.89
34.58
32.32
28.39
24.08
20.01
16.16
12.29
8.54
5.53
3.97
4.06
5.15
6.01
5.44
2.82
-1.65
-7.10
-12.29
-15.84
-16.42
-13.01
-5.27
6.22
20.02
34.20
46.94
57.00
63.96
68.10
69.89
69.34
65.53
56.82
41.61
19.58
-7.53
-36.02
-61.50
-80.71
-92.67
-98.75
-101.83
-105.27
-112.05
-124.30
-142.87
-166.68
-192.33
-214.44
-227.12
-226.08
-210.55
-183.43
-149.62
-113.67
-77.85
-41.70
-2.98
40.57
89.63
142.39
194.79
241.55
277.46
298.75
304.05
294.62
273.62
245.18
213.05
180.62
151.56
129.69
118.16
118.31
128.58
144.59
160.68
170.84
171.11
161.07
142.92
120.05
95.22
69.46
42.04
11.19
-26.65
-74.52
-131.96
-194.56
-254.23
-301.22
-327.28
-328.31
-305.35
-265.49
-217.72
-167.54
-115.68
-58.56
8.72
85.23
160.22
227.77
282.02
312.40
315.89
297.05
265.61
231.97
202.48
177.63
153.44
122.92
80.75
26.96
-34.62
-98.10
-157.22
-206.45
-241.36
-259.32
-262.88
-260.06
-261.37
-276.93
-311.43
-360.74
-412.63
-451.83
-467.24
-458.35
-434.96
-411.08
-397.86
-398.01
-405.49
-410.10
-403.67
-384.31
-356.95
-329.02
-305.22
-284.95
-263.52
-235.82
-200.00
-158.58
-116.86
-79.70
-48.75
-21.70
6.00
38.79
78.84
125.09
174.17
222.06
265.84
304.96
341.36
378.50
419.54
465.46
513.88
559.29
594.83
614.80
616.90
602.87
577.39
545.81
511.98
477.32
441.69
404.93
368.11
333.47
303.05
276.92
252.46
225.26
191.21
148.70
99.38
47.40
-2.52
-46.86
-84.06
-114.08
-137.47
-154.59
-165.51
-170.41
-170.01
-165.66
-159.21
-152.83
-149.10
-150.93
-161.10
-181.26
-210.70
-245.59
-279.48
-305.06
-316.31
-310.27
-287.36
-250.38
-202.73
-147.27
-86.21
-22.08
41.18
97.96
141.90
167.51
171.46
153.20
114.77
60.64
-2.44
-65.63
-118.74
-151.85
-157.65
-133.55
-82.68
-13.38
62.87
134.31
191.65
230.06
249.72
254.96
252.20
247.64
245.66
248.39
256.45
269.77
287.93
309.62
331.89
350.31
360.11
358.05
343.73
319.54
289.11
255.63
220.39
182.86
141.61
96.07
47.60
-0.78
-45.84
-85.83
-121.66
-156.71
-195.36
-240.97
-293.91
-350.90
-405.81
-451.57
-481.92
-492.37
-480.54
-446.09
-391.20
-320.04
-238.09
-151.13
-64.39
18.06
93.03
157.63
208.78
242.21
255.36
249.22
228.65
200.31
169.70
139.51
109.33
76.99
37.80
-10.67
-66.73
-124.92
-178.71
-222.70
-253.67
-270.78
-275.62
-275.84
-278.88
-287.81
-300.30
-311.12
-315.47
-310.76
-297.34
-278.28
-263.57
-261.84
-275.91
-302.15
-334.39
-367.37
-397.80
-423.88
-411.89
-343.25
-226.07
-91.11
32.16
130.32
203.13
255.48
292.47
318.00
329.92
327.24
313.37
294.89
277.90
265.65
258.50
255.15
253.92
249.53
238.47
221.58
201.74
181.90
164.16
149.63
138.64
131.12
124.46
116.95
109.18
100.99
91.84
81.86
71.86
62.62
54.47
45.91
35.09
19.93
0.04
-27.36
-63.60
-107.91
-158.42
-213.10
-270.50
-329.44
-366.66
-368.34
-337.65
-290.58
-243.24
-204.37
-176.35
-158.05
-146.22
-135.72
-123.49
-106.48
-81.49
-47.45
-7.51
31.65
63.17
83.55
93.77
95.31
90.35
81.36
70.44
58.95
47.89
38.64
33.01
32.33
35.03
38.48
40.65
40.72
39.06
37.16
36.65
38.90
44.51
52.16
59.98
66.14
69.48
69.78
67.60
64.07
60.58
58.25
57.23
57.44
58.21
58.79
58.62
57.54
55.86
54.22
53.59
54.92
59.72
68.72
81.54
96.48
110.75
121.27
125.95
124.91
116.63
103.85
90.61
80.43
74.95
73.56
74.21
74.66
73.62
71.03
68.19
65.83
63.42
59.01
49.88
33.86
10.40
-18.81
-50.30
-79.51
-102.85
-118.77
-127.51
-130.72
-130.66
-129.82
-131.00
-137.17
-150.60
-172.12
-199.99
-230.10
-257.99
-281.56
-302.73
-326.35
-356.59
-392.89
-428.43
-452.19
-454.00
-429.44
-381.60
-319.17
-251.68
-185.27
-121.22
-57.32
9.37
80.56
156.30
235.60
316.59
395.87
468.01
525.81
562.12
572.10
554.42
511.26
447.13
367.94
280.96
195.13
120.53
66.38
37.94
34.31
48.59
70.91
92.53
108.81
119.44
126.23
130.44
131.01
125.10
109.81
84.07
49.55
10.19
-29.15
-64.29
-92.81
-114.63
-131.21
-144.05
-153.09
-155.70
-146.93
-121.40
-76.07
-12.93
60.01
130.28
184.74
213.80
214.43
190.66
151.23
105.62
60.40
17.46
-25.69
-73.62
-129.81
-194.18
-261.81
-323.63
-368.55
-386.98
-374.32
-333.21
-273.50
-209.77
-157.10
-126.58
-122.40
-140.99
-172.69
-204.95
-225.62
-225.39
-198.67
-143.63
-61.90
41.09
155.96
269.73
367.42
435.61
466.11
458.18
418.04
356.14
283.57
209.45
140.44
81.24
35.14
3.09
-17.55
-33.13
-51.55
-78.38
-113.41
-149.93
-177.73
-187.89
-177.29
-149.93
-114.39
-79.28
-49.37
-24.50
-1.68
21.36
43.67
61.02
68.57
64.09
49.78
31.38
15.35
5.96
3.98
7.41
13.48
20.43
27.88
35.99
44.35
51.68
56.37
57.29
54.30
47.94
38.85
27.66
15.21
2.87
-7.44
-14.11
-16.99
-17.93
-20.37
-27.79
-42.16
-63.14
-88.56
-115.65
-142.15
-166.72
-188.32
-205.56
-216.53
-219.37
-213.18
-198.60
-177.73
-153.42
-128.21
-103.41
-78.78
-52.69
-22.88
12.75
55.66
106.52
165.34
231.45
302.93
375.91
444.15
499.78
535.26
545.91
531.85
498.28
453.57
406.32
362.79
325.97
296.27
273.01
255.61
243.69
236.44
231.99
227.42
219.67
206.54
187.24
162.33
133.25
101.32
67.26
30.80
-9.45
-55.78
-110.71
-175.38
-247.79
-321.53
-386.69
-432.92
-453.79
-450.13
-430.22
-406.59
-390.83
-389.23
-401.31
-421.79
-443.81
-461.75
-472.02
-472.13
-460.02
-434.62
-397.72
-355.28
-316.39
-289.80
-279.67
-282.91
-290.14
-290.06
-274.86
-243.85
-203.39
-163.26
-131.78
-112.33
-102.92
-98.49
-94.13
-87.26
-77.67
-66.48
-54.78
-43.01
-31.42
-20.63
-11.75
-6.29
-5.30
-8.89
-16.12
-25.13
-33.39
-38.07
-36.44
-26.41
-7.05
20.69
54.23
89.97
124.20
154.06
178.18
196.50
209.68
218.50
223.55
225.33
224.57
222.45
220.38
219.36
219.29
218.73
215.37
207.10
193.02
173.88
151.68
128.86
107.36
88.30
72.01
58.56
48.08
40.84
37.07
36.71
39.50
44.83
52.01
60.38
69.25
77.77
84.93
89.85
91.97
91.32
88.45
84.15
78.95
72.85
65.44
56.44
46.26
36.34
28.90
26.19
29.64
39.27
53.66
70.50
87.42
102.60
114.98
124.10
129.75
131.82
130.44
126.15
120.01
113.41
107.48
102.61
98.22
93.07
85.86
75.98
63.79
50.55
37.85
26.93
18.31
11.64
5.87
-0.29
-8.07
-18.23
-30.97
-45.74
-61.43
-76.53
-89.42
-98.72
-103.61
-103.91
-100.07
-93.04
-84.05
-74.43
-65.40
-58.07
-53.25
-51.48
-52.85
-56.98
-63.00
-69.66
-75.58
-79.58
-80.93
-79.55
-75.86
-70.67
-64.79
-58.93
-53.57
-48.99
-45.37
-42.77
-41.22
-40.63
-40.96
-42.15
-44.14
-46.80
-49.73
-52.38
-54.05
-54.19
-52.56
-49.38
-45.09
-40.16
-34.86
-29.19
-23.17
-16.99
-11.26
-6.85
-4.65
-5.18
-8.46
-13.94
-20.52
-26.60
-30.17
-29.10
-21.68
-7.28
13.11
36.92
60.64
80.93
95.64
104.21
107.44
106.68
103.02
96.92
88.33
77.16
63.76
49.07
34.49
21.52
11.33
4.58
1.33
1.21
3.64
7.93
13.41
19.46
25.37
30.44
33.93
35.29
34.30
31.21
26.83
22.29
18.76
16.91
16.69
17.24
17.25
15.52
11.38
4.97
-2.91
-11.22
-19.13
-26.21
-32.55
-38.53
-44.59
-51.07
-58.14
-65.77
-73.56
-80.79
-86.50
-89.81
-90.13
-87.30
-81.52
-73.10
-62.29
-49.23
-34.20
-17.87
-1.48
13.39
25.16
32.80
36.14
35.90
33.32
29.84
26.67
24.48
23.48
23.40
23.66
23.63
22.86
21.16
18.70
15.90
13.24
10.98
8.95
6.60
3.19
-1.85
-8.60
-16.43
-24.13
-30.14
-33.06
-32.01
-26.88
-18.27
-7.39
4.31
15.37
24.53
30.87
33.89
33.57
30.36
25.14
19.06
13.29
8.76
5.91
4.69
4.57
4.90
5.08
4.83
4.26
3.75
3.76
4.47
5.65
6.59
6.43
4.35
0.04
-6.29
-13.92
-21.86
-29.03
-34.45
-37.32
-37.07
-33.44
-26.55
-16.95
-5.66
6.10
17.05
26.06
32.42
35.86
36.56
35.05
32.09
28.44
24.76
21.43
18.57
16.11
13.81
11.42
8.73
5.66
2.32
-1.05
-4.05
-6.30
-7.56
-7.93
-7.89
-8.25
-9.93
-13.60
-19.45
-26.99
-35.11
-42.34
-47.17
-48.41
-45.37
-38.07
-27.11
-13.54
1.35
16.17
29.71
40.94
49.13
53.91
55.32
53.77
49.98
44.84
39.22
33.85
29.23
25.59
22.93
21.05
19.55
18.02
16.08
13.53
10.37
6.79
2.98
-0.95
-5.01
-9.33
-14.06
-19.26
-24.85
-30.68
-36.41
-41.65
-45.77
-48.04
-47.66
-44.08
-37.14
-27.21
-15.16
-2.11
10.76
22.50
32.32
39.72
44.38
46.24
45.46
42.51
38.09
32.98
27.90
23.37
19.66
16.81
14.73
13.30
12.43
12.06
12.18
12.70
13.40
13.93
13.87
12.82
10.53
7.03
2.57
-2.49
-7.80
-13.20
-18.79
-24.80
-31.43
-38.62
-45.88
-52.31
-56.73
-58.00
-55.39
-48.76
-38.68
-26.24
-12.83
0.22
11.84
21.34
28.38
32.96
35.28
35.75
34.84
33.06
30.86
28.61
26.55
24.75
23.18
21.79
20.52
19.43
18.61
18.22
18.23
18.46
18.48
17.79
15.98
12.88
8.62
3.49
-2.18
-8.16
-14.32
-20.59
-26.94
-33.31
-39.64
-45.75
-51.25
-55.47
-57.50
-56.44
-51.72
-43.39
-32.18
-19.35
-6.28
5.81
16.11
24.23
30.10
33.78
35.43
35.26
33.60
30.88
27.63
24.32
21.31
18.76
16.61
14.74
12.98
11.28
9.61
7.99
6.42
4.89
3.42
2.01
0.66
-0.68
-2.19
-4.12
-6.75
-10.26
-14.73
-20.13
-26.33
-33.02
-39.65
-45.39
-49.20
-50.06
-47.33
-40.95
-31.54
-20.17
-8.09
3.57
13.96
22.44
28.57
32.05
32.76
30.95
27.24
22.55
17.86
13.96
11.23
9.70
9.11
9.13
9.55
10.20
10.94
11.49
11.50
10.57
8.48
5.28
1.30
-2.98
-7.16
-11.05
-14.67
-18.31
-22.28
-26.90
-32.33
-38.50
-45.00
-51.14
-55.92
-58.21
-57.02
-51.81
-42.62
-30.25
-16.01
-1.46
11.91
22.99
31.13
36.10
38.01
37.26
34.45
30.36
25.78
21.43
17.75
14.92
12.84
11.35
10.29
9.56
9.08
8.69
8.12
7.11
5.47
3.14
0.25
-2.99
-6.34
-9.64
-12.82
-15.91
-19.07
-22.52
-26.54
-31.29
-36.66
-42.16
-46.88
-49.70
-49.54
-45.76
-38.38
-28.08
-15.98
-3.38
8.54
18.82
26.84
32.22
34.92
35.14
33.36
30.19
26.27
22.12
18.14
14.65
11.92
10.21
9.66
10.20
11.50
13.07
14.35
14.89
14.47
13.06
10.81
7.87
4.42
0.57
-3.58
-8.02
-12.76
-17.89
-23.39
-29.13
-34.67
-39.33
-42.23
-42.58
-39.84
-34.01
-25.62
-15.62
-5.08
5.04
14.03
21.42
26.93
30.40
31.77
31.11
28.71
25.05
20.80
16.59
12.96
10.16
8.19
6.82
5.75
4.71
3.58
2.37
1.15
-0.04
-1.30
-2.87
-5.02
-8.03
-12.04
-17.16
-23.33
-30.33
-37.61
-44.27
-49.16
-51.08
-49.22
-43.36
-34.02
-22.26
-9.43
3.22
14.66
24.18
31.31
35.75
37.41
36.39
33.08
28.16
22.44
16.74
11.69
7.67
4.77
2.87
1.75
1.10
0.62
0.04
-0.86
-2.16
-3.87
-5.94
-8.33
-11.05
-14.19
-17.83
-22.02
-26.72
-31.77
-36.84
-41.44
-44.83
-46.20
-44.76
-40.03
-32.02
-21.33
-9.00
3.69
15.53
25.58
33.28
38.41
40.99
41.19
39.26
35.51
30.47
24.79
19.26
14.65
11.48
9.88
9.61
10.13
10.88
11.43
11.56
11.18
10.24
8.70
6.46
3.51
-0.10
-4.24
-8.86
-13.97
-19.69
-26.07
-32.86
-39.44
-44.73
-47.56
-46.92
-42.30
-33.97
-22.84
-10.24
2.41
13.91
23.50
30.83
35.84
38.64
39.42
38.41
35.90
32.34
28.21
24.11
20.51
17.73
15.84
14.68
13.95
13.36
12.65
11.64
10.23
8.35
5.97
3.09
-0.26
-4.03
-8.25
-12.98
-18.34
-24.43
-31.23
-38.45
-45.46
-51.35
-55.01
-55.36
-51.67
-43.77
-32.21
-18.18
-3.28
10.88
22.99
32.27
38.46
41.75
42.51
41.23
38.37
34.43
29.93
25.41
21.31
17.97
15.46
13.72
12.54
11.72
11.09
10.53
9.93
9.13
7.98
6.35
4.18
1.51
-1.60
-5.09
-8.95
-13.22
-18.04
-23.51
-29.65
-36.25
-42.68
-47.89
-50.58
-49.51
-43.97
-34.10
-20.87
-5.89
9.05
22.42
33.12
40.60
44.71
45.66
43.90
40.13
35.23
30.11
25.58
22.16
20.03
19.06
18.92
19.21
19.55
19.67
19.34
18.48
16.99
14.89
12.23
9.08
5.57
1.81
-2.16
-6.41
-11.05
-16.28
-22.15
-28.53
-34.98
-40.68
-44.59
-45.57
-42.78
-35.88
-25.23
-11.87
2.75
17.02
29.53
39.27
45.68
48.66
48.47
45.68
41.05
35.48
29.81
24.72
20.65
17.72
15.81
14.64
13.90
13.30
12.65
11.85
10.78
9.35
7.45
5.04
2.11
-1.23
-4.86
-8.67
-12.63
-16.80
-21.37
-26.58
-32.59
-39.38
-46.56
-53.30
-58.38
-60.43
-58.35
-51.62
-40.56
-26.29
-10.44
5.21
19.13
30.25
38.00
42.30
43.42
41.87
38.34
33.66
28.69
24.20
20.71
18.45
17.32
17.00
17.15
17.51
17.91
18.27
18.46
18.26
17.40
15.64
12.92
9.30
5.01
0.31
-4.52
-9.30
-13.92
-18.43
-23.03
-28.04
-33.79
-40.36
-47.47
-54.29
-59.57
-61.89
-60.09
-53.65
-42.87
-28.85
-13.19
2.44
16.61
28.37
37.23
43.07
45.99
46.29
44.40
40.92
36.55
32.04
27.94
24.60
22.08
20.21
18.78
17.58
16.48
15.43
14.42
13.40
12.31
11.03
9.37
7.17
4.30
0.77
-3.29
-7.65
-12.08
-16.44
-20.81
-25.41
-30.55
-36.37
-42.72
-49.04
-54.39
-57.63
-57.69
-53.85
-46.00
-34.69
-21.05
-6.50
7.53
19.88
29.76
36.80
40.97
42.47
41.68
39.10
35.36
31.11
26.99
23.43
20.62
18.56
17.09
16.07
15.40
15.03
14.91
14.87
14.62
13.81
12.16
9.59
6.20
2.23
-2.02
-6.36
-10.71
-15.09
-19.63
-24.54
-29.98
-35.99
-42.25
-48.04
-52.28
-53.70
-51.29
-44.60
-33.97
-20.48
-5.67
8.84
21.69
31.99
39.28
43.44
44.61
43.10
39.39
34.17
28.22
22.37
17.34
13.57
11.23
10.20
10.14
10.66
11.31
11.74
11.66
10.87
9.30
6.97
3.97
0.47
-3.36
-7.35
-11.43
-15.65
-20.17
-25.24
-30.97
-37.21
-43.39
-48.55
-51.51
-51.18
-46.94
-38.80
-27.48
-14.22
-0.49
12.39
23.39
31.92
37.72
40.78
41.29
39.53
35.99
31.32
26.25
21.51
17.61
14.78
12.93
11.83
11.18
10.78
10.50
10.27
9.97
9.35
8.11
5.91
2.64
-1.61
-6.47
-11.44
-16.11
-20.29
-24.12
-27.98
-32.39
-37.72
-44.02
-50.89
-57.44
-62.46
-64.68
-63.07
-57.15
-47.15
-33.96
-18.97
-3.68
10.56
22.74
32.24
38.73
42.14
42.65
40.65
36.81
31.96
26.97
22.52
18.97
16.39
14.59
13.34
12.48
11.95
11.73
11.71
11.67
11.27
10.14
8.04
4.95
1.06
-3.25
-7.57
-11.63
-15.37
-18.96
-22.73
-27.09
-32.37
-38.67
-45.67
-52.61
-58.33
-61.48
-60.92
-56.03
-46.98
-34.67
-20.42
-5.69
8.26
20.45
30.23
37.14
41.04
41.99
40.40
36.91
32.35
27.51
23.01
19.25
16.37
14.35
13.09
12.44
12.24
12.24
12.20
11.83
10.81
8.94
6.13
2.49
-1.70
-6.05
-10.25
-14.15
-17.88
-21.80
-26.36
-31.81
-37.98
-44.15
-49.14
-51.62
-50.45
-45.06
-35.67
-23.19
-9.07
5.08
17.81
28.14
35.54
40.01
41.80
41.33
39.03
35.30
30.61
25.48
20.50
16.25
13.17
11.38
10.69
10.64
10.66
10.32
9.39
7.87
5.93
3.71
1.29
-1.43
-4.58
-8.28
-12.57
-17.47
-22.94
-28.93
-35.30
-41.64
-47.22
-50.92
-51.60
-48.35
-40.86
-29.63
-15.83
-1.01
13.21
25.56
35.14
41.50
44.57
44.54
41.94
37.47
32.00
26.34
21.18
16.95
13.77
11.54
9.99
8.83
7.78
6.63
5.23
3.48
1.30
-1.34
-4.42
-7.82
-11.42
-15.10
-18.86
-22.85
-27.39
-32.79
-39.22
-46.46
-53.80
-60.07
-63.89
-63.99
-59.57
-50.61
-37.85
-22.65
-6.69
8.46
21.55
31.81
38.94
42.96
44.14
42.89
39.76
35.38
30.43
25.56
21.28
17.89
15.50
14.04
13.31
13.10
13.13
13.08
12.63
11.47
9.38
6.34
2.52
-1.78
-6.25
-10.70
-15.19
-19.98
-25.43
-31.77
-38.94
-46.40
-53.20
-58.05
-59.71
-57.22
-50.22
-39.09
-24.89
-9.14
6.56
20.78
32.48
41.06
46.34
48.40
47.63
44.64
40.19
35.10
30.15
25.88
22.58
20.30
18.86
18.02
17.51
17.12
16.70
16.13
15.27
13.93
11.90
8.98
5.15
0.60
-4.30
-9.19
-13.89
-18.57
-23.66
-29.65
-36.75
-44.71
-52.66
-59.31
-63.22
-63.18
-58.47
-49.18
-36.07
-20.50
-4.08
11.63
25.38
36.35
44.06
48.41
49.52
47.82
43.97
38.86
33.41
28.43
24.45
21.68
20.06
19.37
19.34
19.68
20.12
20.40
20.26
19.50
17.95
15.51
12.20
8.13
3.52
-1.37
-6.31
-11.17
-16.06
-21.22
-27.02
-33.64
-40.89
-48.04
-53.89
-57.02
-56.16
-50.65
-40.65
-27.09
-11.42
4.66
19.61
32.20
41.61
47.43
49.67
48.74
45.34
40.35
34.69
29.12
24.14
20.05
16.90
14.70
13.36
12.78
12.79
13.13
13.48
13.48
12.82
11.32
8.93
5.74
1.91
-2.38
-6.99
-11.83
-16.87
-22.14
-27.76
-33.84
-40.29
-46.72
-52.28
-55.79
-56.04
-52.11
-43.75
-31.50
-16.61
-0.67
14.68
28.12
38.75
46.08
49.98
50.59
48.35
43.92
38.22
32.22
26.81
22.56
19.65
17.90
16.89
16.24
15.70
15.20
14.73
14.25
13.58
12.40
10.37
7.27
3.05
-2.04
-7.58
-13.10
-18.22
-22.79
-27.00
-31.33
-36.33
-42.37
-49.38
-56.69
-63.11
-67.15
-67.46
-63.16
-54.14
-41.06
-25.23
-8.28
8.14
22.69
34.41
42.79
47.72
49.31
47.97
44.32
39.16
33.41
27.95
23.43
20.16
18.09
16.92
16.30
15.97
15.81
15.76
15.68
15.30
14.19
12.01
8.59
4.08
-1.13
-6.56
-11.84
-16.84
-21.68
-26.66
-32.13
-38.32
-45.15
-52.10
-58.17
-62.01
-62.26
-57.96
-48.90
-35.77
-19.97
-3.24
12.76
26.74
37.84
45.62
49.94
50.92
48.99
44.90
39.60
34.07
29.08
25.07
22.15
20.18
18.93
18.22
17.86
17.68
17.47
16.96
15.88
14.03
11.29
7.71
3.44
-1.29
-6.26
-11.28
-16.31
-21.45
-26.94
-33.05
-39.88
-47.13
-54.01
-59.18
-61.16
-58.73
-51.34
-39.43
-24.28
-7.67
8.55
22.92
34.48
42.78
47.70
49.39
48.20
44.69
39.63
33.86
28.18
23.17
19.13
16.16
14.15
12.94
12.28
11.90
11.46
10.66
9.27
7.23
4.59
1.52
-1.85
-5.46
-9.37
-13.70
-18.61
-24.24
-30.66
-37.77
-45.19
-52.09
-57.30
-59.49
-57.50
-50.77
-39.55
-24.89
-8.40
8.09
22.91
34.82
43.09
47.59
48.59
46.74
42.77
37.50
31.63
25.76
20.39
15.91
12.60
10.55
9.63
9.51
9.74
9.86
9.50
8.42
6.52
3.82
0.42
-3.54
-7.91
-12.57
-17.46
-22.59
-28.08
-34.10
-40.71
-47.70
-54.38
-59.58
-61.85
-59.88
-53.03
-41.57
-26.72
-10.25
5.96
20.40
32.12
40.68
45.94
47.99
47.07
43.61
38.32
32.07
25.80
20.29
16.02
13.14
11.53
10.87
10.75
10.76
10.53
9.82
8.49
6.56
4.10
1.19
-2.14
-5.90
-10.10
-14.77
-19.92
-25.63
-32.00
-38.97
-46.19
-52.85
-57.72
-59.39
-56.76
-49.39
-37.72
-23.02
-7.02
8.52
22.11
32.80
40.14
44.13
45.07
43.44
39.79
34.75
28.97
23.10
17.78
13.53
10.60
9.02
8.46
8.45
8.49
8.21
7.40
6.09
4.30
2.04
-0.74
-4.18
-8.31
-13.07
-18.31
-23.93
-29.93
-36.35
-43.10
-49.66
-55.03
-57.85
-56.82
-51.16
-40.96
-27.18
-11.40
4.61
19.30
31.55
40.68
46.41
48.73
47.87
44.33
38.82
32.23
25.50
19.47
14.78
11.69
10.12
9.65
9.71
9.75
9.39
8.47
6.98
5.01
2.64
-0.10
-3.23
-6.74
-10.69
-15.15
-20.31
-26.34
-33.22
-40.54
-47.34
-52.27
-53.93
-51.31
-44.13
-32.96
-19.04
-3.85
11.15
24.75
36.00
44.22
48.97
50.11
47.92
43.07
36.55
29.43
22.68
16.98
12.71
9.90
8.36
7.69
7.39
7.00
6.15
4.70
2.70
0.30
-2.37
-5.33
-8.76
-12.95
-18.19
-24.60
-32.00
-39.83
-47.17
-52.84
-55.65
-54.60
-49.18
-39.54
-26.48
-11.33
4.26
18.69
30.67
39.39
44.54
46.26
45.00
41.36
36.07
29.90
23.61
17.87
13.20
9.84
7.72
6.53
5.81
5.14
4.19
2.84
1.10
-0.97
-3.33
-5.99
-9.06
-12.72
-17.18
-22.62
-29.13
-36.57
-44.49
-52.07
-58.18
-61.54
-60.97
-55.78
-45.95
-32.26
-16.10
0.80
16.76
30.40
40.85
47.73
51.05
51.14
48.53
43.90
38.00
31.67
25.62
20.47
16.58
14.05
12.71
12.21
12.07
11.82
11.12
9.72
7.56
4.63
0.99
-3.24
-7.92
-12.84
-17.91
-23.13
-28.65
-34.76
-41.57
-48.88
-55.94
-61.47
-63.94
-62.03
-55.06
-43.29
-27.86
-10.56
6.73
22.35
35.17
44.56
50.32
52.54
51.52
47.80
42.16
35.55
29.01
23.41
19.33
16.88
15.80
15.59
15.65
15.50
14.84
13.52
11.55
8.99
5.95
2.54
-1.18
-5.17
-9.47
-14.21
-19.59
-25.79
-32.80
-40.35
-47.67
-53.62
-56.83
-56.08
-50.66
-40.67
-27.01
-11.23
4.95
19.91
32.46
41.93
48.05
50.89
50.69
47.91
43.17
37.26
31.05
25.35
20.81
17.73
16.08
15.50
15.48
15.48
15.09
14.05
12.25
9.73
6.59
3.02
-0.80
-4.74
-8.83
-13.25
-18.29
-24.27
-31.25
-38.94
-46.52
-52.77
-56.28
-55.79
-50.60
-40.77
-27.15
-11.24
5.18
20.39
33.05
42.37
48.06
50.24
49.34
45.98
40.87
34.85
28.71
23.17
18.77
15.73
14.00
13.24
13.01
12.86
12.42
11.46
9.89
7.68
4.83
1.38
-2.61
-7.04
-11.81
-16.78
-21.91
-27.25
-32.96
-39.23
-46.12
-53.30
-59.92
-64.67
-66.06
-62.91
-54.72
-41.93
-25.87
-8.31
8.92
24.33
36.95
46.23
52.00
54.30
53.42
49.93
44.67
38.66
32.90
28.15
24.77
22.71
21.62
21.06
20.68
20.33
19.95
19.50
18.81
17.61
15.55
12.41
8.18
3.10
-2.43
-8.00
-13.31
-18.26
-23.01
-27.91
-33.41
-39.84
-47.23
-55.11
-62.50
-68.02
-70.18
-67.85
-60.55
-48.63
-33.21
-15.88
1.60
17.68
31.11
41.12
47.39
49.99
49.32
46.10
41.21
35.62
30.22
25.68
22.40
20.42
19.53
19.38
19.60
19.93
20.20
20.34
20.20
19.59
18.25
15.92
12.49
8.06
2.92
-2.51
-7.86
-12.89
-17.52
-21.88
-26.23
-30.90
-36.23
-42.44
-49.42
-56.56
-62.79
-66.63
-66.68
-61.97
-52.36
-38.59
-22.13
-4.76
11.79
26.14
37.40
45.11
49.21
49.98
48.01
44.10
39.16
34.00
29.21
25.11
21.78
19.19
17.32
16.19
15.80
16.04
16.59
17.01
16.84
15.71
13.45
10.13
5.99
1.42
-3.25
-7.78
-12.14
-16.50
-21.17
-26.50
-32.65
-39.41
-46.09
-51.54
-54.41
-53.49
-48.06
-38.19
-24.75
-9.20
6.72
21.39
33.56
42.49
47.88
49.86
48.84
45.44
40.47
34.77
29.13
24.13
20.09
16.96
14.51
12.36
10.19
7.83
5.28
2.67
0.14
-2.28
-4.67
-7.24
-10.29
-14.09
-18.89
-24.80
-31.80
-39.66
-47.98
-56.19
-63.61
-69.45
-72.84
-72.93
-69.08
-61.03
-49.14
-34.33
-18.06
-1.98
12.39
23.96
32.18
37.04
38.88
38.20
35.59
31.55
26.63
21.41
16.50
12.43
9.61
8.13
7.78
8.08
8.41
8.26
7.32
5.56
3.17
0.44
-2.40
-5.27
-8.24
-11.54
-15.40
-20.00
-25.41
-31.45
-37.64
-43.17
-46.98
-47.91
-45.07
-38.05
-27.25
-13.70
1.13
15.68
28.69
39.32
47.18
52.15
54.27
53.70
50.71
45.77
39.52
32.71
26.12
20.33
15.70
12.29
9.92
8.31
7.17
6.31
5.59
4.89
4.04
2.75
0.69
-2.54
-7.21
-13.49
-21.30
-30.27
-39.71
-48.64
-55.76
-59.73
-59.47
-54.40
-44.67
-31.11
-15.04
1.99
18.50
33.24
45.21
53.68
58.25
58.88
56.01
50.61
44.09
37.98
33.61
31.73
32.30
34.53
37.20
39.05
39.29
37.84
35.30
32.66
30.76
29.92
29.73
29.21
27.17
22.76
15.83
7.04
-2.24
-10.34
-15.99
-18.86
-19.95
-21.38
-25.81
-35.23
-50.05
-68.56
-87.22
-101.75
-108.56
-106.00
-94.98
-78.82
-62.17
-49.57
-44.11
-46.57
-55.32
-67.19
-78.86
-88.09
-94.21
-97.67
-99.12
-98.60
-95.69
-90.22
-83.05
-76.43
-73.06
-74.92
-82.04
-91.98
-100.54
-102.95
-95.29
-75.33
-42.90
0.19
50.32
102.52
151.09
190.63
217.16
228.91
226.50
212.44
190.28
163.57
135.27
107.42
81.12
56.89
34.96
15.56
-0.98
-14.27
-24.02
-30.25
-33.51
-34.73
-34.94
-35.34
-37.62
-44.06
-56.91
-76.87
-101.21
-122.86
-131.57
-117.51
-75.78
-9.61
69.86
147.39
209.46
249.19
267.92
272.99
273.21
274.55
277.83
279.56
274.22
256.75
224.07
175.68
113.69
43.02
-28.58
-91.56
-136.88
-159.21
-159.21
-143.50
-122.05
-104.13
-94.99
-94.87
-100.56
-108.07
-114.83
-120.14
-124.39
-127.78
-129.92
-130.24
-128.75
-126.40
-124.53
-124.16
-125.22
-126.44
-125.96
-122.17
-114.48
-103.70
-91.89
-81.64
-75.20
-73.65
-76.47
-81.77
-87.14
-90.57
-91.23
-89.63
-87.16
-85.27
-84.64
-85.05
-85.47
-84.71
-81.86
-76.59
-69.10
-59.82
-49.22
-37.57
-24.90
-10.89
4.82
22.34
41.14
59.95
77.16
91.61
103.29
113.45
124.08
136.88
152.62
171.02
191.26
212.64
234.81
257.48
279.99
301.04
318.81
331.60
338.22
338.08
331.06
317.29
297.24
271.73
241.88
208.75
172.83
133.97
91.48
44.84
-5.97
-60.22
-116.54
-172.90
-226.63
-274.42
-312.75
-338.73
-351.08
-350.70
-340.39
-323.62
-303.23
-280.56
-255.61
-227.90
-197.45
-165.25
-133.00
-102.39
-74.50
-49.69
-27.90
-9.16
6.23
17.69
24.87
28.03
28.19
26.98
26.05
26.56
28.78
32.08
35.36
37.50
37.86
36.48
33.95
31.03
28.35
26.07
23.83
20.96
16.72
10.54
2.23
-7.91
-19.09
-30.03
-39.19
-44.87
-45.69
-40.86
-30.44
-15.37
2.79
22.19
41.11
58.18
72.47
83.38
90.56
93.89
93.47
89.73
83.44
75.60
67.28
59.38
52.49
46.83
42.34
38.82
35.97
33.49
31.06
28.34
25.01
20.86
15.84
10.12
3.97
-2.32
-8.60
-14.92
-21.60
-29.06
-37.67
-47.45
-57.90
-67.84
-75.58
-79.24
-77.25
-68.85
-54.34
-35.07
-13.14
9.15
29.76
47.27
60.93
70.51
76.13
78.08
76.76
72.77
66.97
60.34
53.90
48.48
44.56
42.16
40.93
40.29
39.69
38.75
37.33
35.49
33.31
30.78
27.68
23.73
18.63
12.37
5.17
-2.48
-10.06
-17.15
-23.60
-29.52
-35.19
-40.98
-47.28
-54.39
-62.45
-71.22
-80.01
-87.58
-92.27
-92.40
-86.73
-74.90
-57.63
-36.56
-13.89
8.19
27.89
44.01
55.95
63.56
67.03
66.83
63.68
58.55
52.53
46.68
41.80
38.30
36.11
34.87
34.05
33.25
32.28
31.14
29.87
28.42
26.56
23.93
20.24
15.39
9.57
3.19
-3.26
-9.41
-15.06
-20.28
-25.33
-30.63
-36.63
-43.67
-51.72
-60.27
-68.22
-74.01
-75.98
-72.80
-63.91
-49.77
-31.73
-11.71
8.27
26.48
41.77
53.50
61.43
65.60
66.27
63.96
59.47
53.85
48.18
43.34
39.83
37.68
36.59
36.07
35.72
35.27
34.59
33.57
32.10
30.02
27.20
23.64
19.46
14.88
10.07
5.05
-0.28
-6.08
-12.38
-18.99
-25.57
-31.72
-37.21
-42.02
-46.40
-50.76
-55.56
-61.20
-67.94
-75.69
-83.92
-91.53
-96.94
-98.40
-94.50
-84.61
-69.17
-49.66
-28.10
-6.70
12.76
29.04
41.54
50.12
54.96
56.49
55.32
52.22
48.09
43.74
39.84
36.76
34.58
33.20
32.41
32.02
31.92
31.97
32.02
31.79
30.93
29.15
26.30
22.46
17.88
12.93
7.93
3.08
-1.65
-6.36
-11.23
-16.35
-21.67
-27.04
-32.28
-37.22
-41.83
-46.28
-50.90
-56.10
-62.22
-69.21
-76.56
-83.14
-87.43
-87.91
-83.45
-73.74
-59.36
-41.69
-22.51
-3.62
13.49
27.78
38.68
46.00
49.82
50.48
48.49
44.56
39.56
34.38
29.79
26.32
24.17
23.18
22.99
23.19
23.43
23.52
23.37
22.93
22.10
20.73
18.61
15.58
11.58
6.75
1.39
-4.14
-9.49
-14.47
-19.03
-23.33
-27.56
-31.94
-36.69
-41.98
-47.94
-54.49
-61.24
-67.39
-71.80
-73.21
-70.56
-63.34
-51.75
-36.72
-19.69
-2.28
13.98
27.90
38.69
45.99
49.75
50.25
48.03
43.81
38.49
33.01
28.18
24.54
22.27
21.18
20.85
20.76
20.47
19.80
18.73
17.44
16.04
14.57
12.85
10.59
7.50
3.43
-1.55
-7.17
-13.04
-18.80
-24.26
-29.35
-34.21
-39.07
-44.24
-50.00
-56.51
-63.62
-70.79
-77.03
-80.99
-81.31
-76.97
-67.65
-53.91
-37.04
-18.77
-0.84
15.31
28.73
38.92
45.73
49.23
49.68
47.57
43.63
38.76
33.90
29.84
26.97
25.30
24.49
24.09
23.73
23.21
22.56
21.82
20.99
19.90
18.28
15.84
12.46
8.15
3.10
-2.48
-8.37
-14.40
-20.41
-26.32
-32.10
-37.89
-43.95
-50.55
-57.83
-65.53
-72.92
-78.82
-81.86
-80.75
-74.72
-63.72
-48.53
-30.60
-11.73
6.33
22.18
34.91
44.17
49.94
52.45
52.12
49.51
45.33
40.45
35.69
31.69
28.75
26.86
25.77
25.16
24.76
24.45
24.18
23.94
23.56
22.76
21.12
18.27
14.08
8.67
2.51
-3.84
-9.84
-15.27
-20.19
-24.93
-29.98
-35.70
-42.35
-49.86
-57.86
-65.64
-72.09
-75.86
-75.64
-70.52
-60.30
-45.64
-27.93
-8.96
9.46
25.86
39.21
48.98
55.00
57.42
56.64
53.36
48.48
42.92
37.52
32.86
29.17
26.45
24.54
23.25
22.42
21.99
21.81
21.71
21.37
20.45
18.61
15.65
11.58
6.58
1.01
-4.77
-10.41
-15.81
-21.13
-26.73
-33.10
-40.56
-49.03
-57.86
-65.80
-71.26
-72.71
-69.12
-60.22
-46.62
-29.67
-11.08
7.34
24.01
37.72
47.73
53.72
55.75
54.26
50.00
43.93
37.10
30.46
24.73
20.30
17.23
15.39
14.48
14.19
14.19
14.16
13.77
12.77
11.01
8.46
5.23
1.47
-2.68
-7.17
-12.09
-17.58
-23.84
-30.94
-38.67
-46.37
-52.96
-57.05
-57.22
-52.51
-42.69
-28.42
-11.19
7.09
24.42
39.21
50.44
57.68
60.99
60.73
57.48
51.94
44.96
37.51
30.51
24.68
20.41
17.69
16.14
15.24
14.44
13.32
11.65
9.36
6.51
3.21
-0.41
-4.28
-8.43
-12.99
-18.16
-24.21
-31.25
-39.21
-47.63
-55.59
-61.82
-64.87
-63.49
-56.95
-45.39
-29.78
-11.81
6.48
23.19
36.91
46.86
52.89
55.35
54.76
51.71
46.78
40.54
33.67
26.94
21.09
16.70
13.96
12.62
12.10
11.71
10.85
9.24
6.92
4.13
1.13
-1.97
-5.24
-8.94
-13.34
-18.68
-25.06
-32.42
-40.52
-48.85
-56.54
-62.33
-64.79
-62.63
-55.17
-42.67
-26.37
-8.20
9.72
25.61
38.38
47.58
53.26
55.63
54.99
51.71
46.37
39.82
33.05
27.01
22.30
19.10
17.18
16.07
15.31
14.55
13.57
12.22
10.38
7.91
4.77
1.01
-3.19
-7.60
-12.11
-16.82
-22.02
-28.11
-35.30
-43.42
-51.74
-59.05
-63.85
-64.74
-60.77
-51.75
-38.34
-21.91
-4.20
13.01
28.24
40.46
49.11
54.04
55.38
53.54
49.22
43.28
36.72
30.49
25.27
21.39
18.86
17.42
16.69
16.32
16.01
15.50
14.59
13.09
10.85
7.82
4.02
-0.42
-5.26
-10.25
-15.20
-20.11
-25.22
-30.91
-37.52
-45.09
-53.06
-60.30
-65.28
-66.49
-62.90
-54.27
-41.28
-25.29
-8.06
8.65
23.40
35.20
43.53
48.33
49.81
48.42
44.74
39.49
33.45
27.40
22.02
17.78
14.85
13.12
12.30
12.07
12.08
12.03
11.63
10.59
8.71
5.91
2.33
-1.74
-5.98
-10.19
-14.43
-18.97
-24.16
-30.29
-37.36
-44.98
-52.30
-58.17
-61.27
-60.44
-55.02
-45.02
-31.19
-14.95
1.97
17.86
31.34
41.49
47.92
50.66
50.10
46.89
41.83
35.83
29.74
24.20
19.60
16.05
13.44
11.61
10.37
9.59
9.10
8.69
8.12
7.14
5.58
3.40
0.66
-2.50
-6.00
-9.85
-14.13
-19.01
-24.70
-31.34
-38.90
-46.99
-54.74
-60.90
-64.02
-62.86
-56.77
-45.91
-31.30
-14.52
2.66
18.60
32.11
42.47
49.40
52.97
53.50
51.50
47.65
42.70
37.39
32.38
28.14
24.93
22.85
21.81
21.64
22.04
22.67
23.16
23.14
22.40
20.83
18.54
15.72
12.62
9.45
6.29
3.13
-0.17
-3.78
-7.88
-12.53
-17.62
-22.75
-27.16
-29.76
-29.22
-24.28
-14.03
1.68
22.09
45.51
69.64
91.99
110.46
123.88
132.20
136.53
138.63
140.22
142.28
144.63
146.26
146.02
143.57
139.86
136.86
136.63
140.34
147.57
156.60
165.14
171.12
172.87
168.92
157.96
139.39
114.40
86.72
62.08
46.30
42.50
49.24
60.62
68.79
67.25
53.54
29.55
-0.20
-31.27
-61.20
-89.89
-118.28
-147.01
-175.61
-203.05
-228.85
-254.34
-282.83
-318.49
-363.89
-417.63
-473.41
-521.18
-550.44
-554.21
-531.70
-488.43
-433.57
-375.88
-320.39
-267.58
-215.12
-161.00
-106.00
-53.88
-9.57
23.37
44.48
56.24
62.35
65.81
67.87
68.06
65.42
59.78
52.28
44.98
39.99
38.55
40.82
46.04
52.95
60.20
66.43
70.38
70.88
67.02
58.30
44.83
27.44
7.69
-12.23
-29.71
-42.08
-47.05
-42.97
-29.26
-6.54
23.32
57.46
92.60
125.53
153.53
174.31
185.74
185.85
173.34
148.53
114.07
74.82
36.73
4.76
-18.86
-35.22
-47.80
-60.35
-74.74
-89.91
-102.23
-107.20
-101.15
-82.70
-52.92
-14.65
28.82
75.00
122.83
172.51
224.57
278.41
331.23
377.99
412.30
428.34
422.69
395.22
348.76
287.74
216.97
141.05
64.42
-8.34
-72.80
-125.59
-165.65
-194.65
-216.17
-233.90
-249.80
-263.33
-272.36
-274.95
-270.68
-260.89
-247.55
-231.82
-212.93
-188.60
-156.23
-114.60
-65.02
-11.55
39.94
83.49
114.61
131.36
134.53
127.01
112.68
95.21
77.21
60.14
44.59
30.80
19.01
9.50
2.55
-1.42
-1.78
2.45
12.18
27.61
47.62
69.81
91.17
109.33
123.36
134.02
143.11
152.20
161.68
170.28
175.40
173.98
163.60
143.16
113.29
76.08
34.33
-9.32
-53.31
-97.73
-144.33
-195.57
-252.93
-315.13
-377.00
-430.15
-465.19
-475.02
-457.43
-415.89
-357.96
-292.13
-224.69
-158.23
-92.10
-24.20
47.08
121.61
197.22
270.22
336.20
390.89
431.00
455.01
463.40
458.21
442.04
417.14
385.02
346.75
303.81
258.57
214.05
172.81
135.83
101.85
67.70
29.45
-16.30
-71.30
-135.04
-204.50
-274.60
-339.03
-391.50
-427.27
-444.71
-446.42
-438.85
-430.57
-429.15
-438.26
-456.11
-476.34
-490.89
-493.51
-482.15
-458.97
-428.32
-394.00
-357.40
-317.51
-272.51
-221.92
-167.35
-112.23
-59.94
-12.28
31.31
73.39
117.55
167.24
224.22
287.47
352.17
409.98
450.77
465.41
448.59
400.23
325.26
232.16
131.39
34.07
-49.29
-110.51
-145.80
-156.98
-150.98
-137.03
-122.72
-111.13
-100.35
-85.74
-63.16
-31.16
9.29
55.92
106.55
159.31
212.02
261.67
304.93
339.38
364.50
382.01
394.85
405.67
415.67
423.93
427.83
423.99
409.59
383.33
346.08
300.63
250.66
199.46
148.68
97.87
44.91
-12.51
-75.00
-139.91
-201.19
-250.68
-281.08
-288.97
-276.56
-251.15
-222.39
-198.70
-184.65
-180.37
-182.89
-188.62
-195.06
-201.15
-206.53
-210.44
-211.37
-207.60
-198.11
-182.83
-162.25
-137.15
-108.63
-78.78
-51.09
-29.74
-17.78
-15.20
-18.31
-21.37
-19.62
-11.83
-0.75
9.10
14.83
17.37
21.09
30.87
48.99
73.66
100.38
124.78
144.88
161.26
175.21
186.53
192.34
187.92
169.10
134.91
88.74
37.75
-9.48
-45.91
-68.18
-77.24
-77.16
-73.05
-68.95
-66.75
-66.33
-66.52
-66.21
-64.83
-62.31
-58.57
-53.29
-46.24
-37.92
-29.96
-24.73
-24.39
-29.61
-39.03
-49.40
-56.63
-56.95
-47.91
-28.88
-1.15
32.26
67.11
98.64
122.41
135.11
135.17
122.98
100.77
72.15
41.48
12.98
-9.95
-25.27
-32.42
-31.91
-24.73
-11.77
6.29
28.67
53.99
80.16
104.79
126.01
143.17
156.89
168.28
177.98
185.29
188.19
184.11
171.17
149.09
119.70
86.72
55.10
30.26
17.02
18.52
35.24
64.73
102.13
141.69
178.56
210.00
235.34
254.92
268.66
275.32
272.92
260.22
238.30
211.07
184.31
163.56
151.78
147.98
147.75
144.98
134.43
113.44
82.23
42.80
-2.72
-53.11
-107.78
-165.53
-223.27
-275.88
-317.46
-343.50
-352.73
-347.51
-332.93
-314.72
-297.33
-282.89
-271.29
-261.23
-251.62
-242.57
-235.59
-232.90
-236.27
-245.93
-260.01
-275.12
-287.68
-295.66
-299.34
-300.91
-302.82
-306.02
-309.08
-308.88
-302.71
-290.16
-273.82
-257.77
-245.31
-236.67
-228.73
-216.78
-196.96
-168.22
-132.28
-92.48
-52.22
-14.21
19.28
46.14
64.55
73.84
75.57
73.76
74.03
81.81
100.52
130.68
170.06
214.52
259.28
299.98
333.32
357.21
370.58
372.96
364.10
343.98
313.32
274.44
231.25
188.60
150.77
120.09
96.28
77.22
60.43
44.66
30.35
19.02
11.92
8.93
8.32
7.50
4.31
-1.93
-10.18
-18.24
-23.86
-25.76
-24.16
-20.79
-18.24
-18.93
-24.21
-33.70
-45.54
-57.11
-66.18
-71.81
-74.59
-76.27
-79.06
-85.08
-95.73
-111.25
-130.17
-148.85
-161.99
-163.94
-150.80
-122.25
-81.86
-35.68
10.17
51.52
86.77
115.71
137.86
151.39
153.58
142.56
119.27
88.20
56.52
31.76
19.19
20.17
32.23
50.75
71.36
91.58
111.07
130.48
149.96
168.15
182.56
190.75
191.31
184.24
170.35
150.78
127.35
103.31
83.81
74.87
80.93
102.24
133.64
165.84
188.70
194.88
181.89
151.82
109.19
58.41
1.93
-60.06
-128.56
-203.80
-283.45
-361.65
-429.54
-477.31
-497.17
-485.81
-445.04
-380.53
-299.35
-207.97
-111.73
-15.66
74.14
150.31
205.52
234.99
238.62
221.51
192.59
161.88
137.88
125.88
127.48
141.11
163.00
187.85
209.49
221.67
219.30
200.05
165.78
122.90
81.13
50.79
39.46
49.47
77.06
113.83
149.49
174.98
184.58
176.60
152.61
116.06
70.62
19.36
-35.36
-91.41
-146.28
-196.81
-239.69
-272.44
-294.18
-305.97
-310.18
-309.29
-305.00
-297.89
-287.75
-274.19
-257.46
-238.66
-219.60
-201.94
-186.42
-172.60
-159.42
-145.94
-132.04
-118.79
-107.90
-101.16
-98.99
-99.79
-100.36
-97.66
-89.47
-75.09
-55.21
-31.03
-4.83
21.35
46.39
69.98
91.23
109.64
125.17
138.46
151.24
163.51
174.60
183.99
191.24
194.46
192.23
184.35
171.91
157.87
142.02
122.71
98.41
67.97
29.25
-18.30
-72.80
-129.92
-182.44
-226.95
-262.29
-288.33
-290.31
-259.50
-198.31
-121.47
-60.69
-21.15
-0.19
6.27
5.73
1.01
-9.51
-28.35
-56.98
-94.70
-137.00
-181.38
-224.83
-262.48
-288.73
-300.22
-295.96
-277.58
-248.58
-211.77
-172.36
-135.08
-102.74
-76.47
-56.27
-40.35
-25.28
-7.14
17.64
48.69
83.58
120.29
158.22
197.34
236.45
271.65
297.02
307.67
301.69
282.12
255.99
230.74
211.53
200.73
199.54
210.05
236.23
282.11
349.42
435.27
531.28
624.95
702.42
751.93
766.78
746.86
698.25
630.82
554.65
476.87
400.42
324.98
249.11
172.29
95.51
20.51
-51.51
-120.57
-187.38
-252.07
-313.48
-369.23
-416.63
-454.07
-481.59
-500.35
-511.40
-514.54
-508.16
-490.41
-460.79
-421.46
-377.11
-333.61
-296.00
-266.95
-246.29
-231.70
-219.95
-208.05
-193.92
-176.51
-155.67
-131.95
-106.49
-80.96
-57.35
-37.58
-23.16
-14.77
-12.20
-14.36
-19.68
-26.46
-33.13
-38.46
-41.55
-41.72
-38.56
-31.91
-22.05
-9.68
4.07
17.94
30.76
41.64
50.09
55.90
59.07
59.76
58.26
55.09
50.95
46.58
42.58
39.28
36.64
34.43
32.37
30.28
28.10
25.84
23.50
21.04
18.38
15.44
12.21
8.69
4.88
0.72
-3.91
-9.04
-14.42
-19.49
-23.37
-25.06
-23.71
-18.92
-10.85
-0.29
11.57
23.37
33.85
42.11
47.63
50.36
50.53
48.61
45.11
40.59
35.63
30.81
26.69
23.67
21.86
21.01
20.57
19.89
18.47
16.18
13.23
10.12
7.30
4.99
3.04
1.05
-1.53
-5.13
-9.90
-15.75
-22.25
-28.72
-34.28
-37.91
-38.65
-35.82
-29.27
-19.47
-7.46
5.46
17.95
28.99
37.87
44.25
48.03
49.32
48.39
45.73
41.95
37.77
33.81
30.52
28.07
26.40
25.26
24.39
23.55
22.63
21.57
20.32
18.83
16.94
14.48
11.39
7.72
3.67
-0.49
-4.58
-8.59
-12.69
-17.15
-22.23
-28.02
-34.31
-40.53
-45.74
-48.82
-48.69
-44.70
-36.81
-25.73
-12.73
0.69
13.16
23.74
31.93
37.62
40.92
42.05
41.30
39.05
35.83
32.22
28.86
26.20
24.48
23.61
23.24
22.92
22.30
21.25
19.94
18.68
17.71
17.00
16.19
14.81
12.46
9.10
5.01
0.68
-3.45
-7.22
-10.72
-14.21
-17.96
-22.15
-26.81
-31.93
-37.40
-42.92
-47.91
-51.52
-52.72
-50.65
-44.97
-36.02
-24.76
-12.52
-0.59
10.07
18.92
25.76
30.59
33.49
34.59
34.13
32.44
29.98
27.24
24.63
22.47
20.91
19.98
19.57
19.49
19.51
19.51
19.44
19.34
19.16
18.80
18.02
16.56
14.26
11.14
7.40
3.31
-0.82
-4.69
-8.05
-10.77
-12.93
-14.78
-16.79
-19.43
-23.02
-27.51
-32.28
-36.25
-38.17
-37.01
-32.28
-24.17
-13.55
-1.67
10.18
21.15
30.89
39.35
46.39
51.69
54.74
55.03
52.32
46.88
39.73
32.20
25.17
18.77
12.57
5.99
-1.47
-10.27
-20.67
-32.17
-43.81
-54.98
-65.87
-77.29
-90.35
-106.20
-125.85
-149.43
-175.00
-199.37
-220.10
-236.61
-249.72
-260.36
-268.71
-273.74
-272.92
-261.58
-234.40
-187.83
-121.31
-36.70
62.40
170.95
280.14
370.58
421.74
425.06
388.59
329.82
266.11
209.02
163.73
130.19
105.75
88.77
79.25
77.16
80.90
87.68
93.83
96.63
94.65
88.04
79.23
71.70
67.51
66.24
65.96
63.41
56.31
43.69
26.13
5.94
-13.80
-31.01
-45.18
-54.31
-60.29
-64.46
-67.40
-68.95
-68.18
-63.80
-55.41
-45.68
-33.98
-21.28
-8.20
4.90
18.01
31.54
46.13
61.79
78.35
95.85
113.02
129.17
144.15
158.24
171.90
185.58
198.96
211.74
223.93
234.64
243.29
249.71
253.58
254.07
254.19
254.60
255.24
255.91
254.86
250.70
242.84
231.50
217.17
200.28
180.62
157.92
132.39
101.79
65.21
24.04
-18.33
-58.37
-93.80
-123.73
-149.02
-170.56
-194.48
-224.59
-260.03
-295.98
-327.06
-350.25
-364.49
-372.39
-376.64
-388.13
-414.05
-454.16
-501.90
-549.53
-592.60
-628.61
-660.23
-689.47
-728.17
-782.68
-849.37
-916.49
-971.24
-1005.84
-1015.99
-1005.38
-906.08
-688.78
-377.01
-36.82
267.55
504.17
655.30
748.24
802.17
828.61
822.91
781.41
711.14
624.48
534.72
450.40
376.83
311.23
250.35
184.01
107.66
26.22
-49.34
-106.63
-138.13
-141.38
-123.20
-93.17
-65.11
-48.30
-44.36
-50.92
-62.65
-74.82
-83.53
-88.94
-92.81
-98.83
-109.59
-124.91
-144.73
-165.77
-182.34
-187.54
-177.04
-150.22
-109.30
-58.29
13.40
102.75
195.84
275.95
333.22
373.23
401.10
420.40
428.65
424.09
403.82
368.22
320.79
265.98
206.99
143.47
80.06
23.17
-22.43
-57.79
-85.17
-105.62
-118.72
-123.55
-120.24
-108.89
-91.01
-69.27
-48.36
-32.04
-21.84
-17.12
-15.90
-16.50
-17.45
-18.59
-20.51
-24.37
-30.35
-37.31
-43.64
-48.18
-51.00
-52.72
-54.52
-57.36
-61.54
-66.52
-71.06
-73.71
-73.47
-70.16
-64.04
-55.85
-47.02
-37.55
-27.53
-16.99
-6.04
4.93
15.33
24.39
31.40
35.78
37.47
36.58
33.41
28.58
22.61
15.85
8.49
0.63
-7.69
-16.34
-25.35
-34.76
-44.27
-53.74
-63.11
-72.30
-81.34
-90.22
-98.86
-107.34
-115.76
-123.78
-131.14
-137.64
-143.04
-147.07
-149.28
-149.06
-145.40
-140.21
-134.12
-127.48
-120.55
-113.51
-106.49
-99.62
-92.97
-86.71
-81.01
-75.61
-70.39
-65.28
-60.23
-55.25
-50.37
-45.64
-41.17
-37.12
-33.32
-29.70
-26.28
-23.07
-20.12
-17.48
-15.24
-13.44
-12.21
-11.41
-10.92
-10.65
-10.48
-10.30
-10.02
-9.59
-8.99
-8.27
-7.44
-6.51
-5.54
-4.56
-3.62
-2.71
-1.86
-1.07
-0.36
0.30
0.95
1.66
2.54
3.67
5.16
7.00
9.15
11.48
13.79
15.96
17.93
19.77
21.60
23.59
25.79
28.14
30.46
32.51
34.17
35.49
36.76
38.44
40.96
44.58
49.25
54.63
60.28
65.84
71.28
76.93
83.37
91.14
100.53
111.35
123.06
134.94
146.43
157.34
167.90
178.71
190.64
204.71
221.86
242.48
265.81
289.60
310.31
323.97
327.55
320.08
302.93
279.21
252.41
225.27
199.15
174.25
150.25
127.02
104.73
83.98
65.37
49.50
36.84
27.82
22.76
21.73
24.44
30.14
37.63
45.38
51.81
55.56
55.83
52.65
46.79
39.54
32.23
25.87
20.91
17.20
14.29
11.63
8.80
5.61
2.15
-1.31
-4.42
-6.87
-8.56
-9.61
-10.33
-11.10
-12.25
-13.94
-16.11
-18.63
-21.35
-24.26
-27.54
-31.49
-36.41
-42.30
-48.72
-54.74
-59.16
-60.83
-58.99
-53.51
-44.83
-33.81
-21.48
-8.97
2.66
12.43
19.65
24.03
25.81
25.61
24.17
22.05
19.64
17.07
14.38
11.68
9.11
6.82
4.87
3.27
1.97
0.92
0.09
-0.63
-1.36
-2.32
-3.67
-5.51
-7.82
-10.52
-13.56
-16.97
-20.86
-25.37
-30.55
-36.23
-41.94
-46.95
-50.37
-51.42
-49.61
-44.85
-37.51
-28.34
-18.29
-8.36
0.51
7.58
12.45
15.06
15.70
14.94
13.39
11.61
9.98
8.65
7.68
7.02
6.64
6.50
6.52
6.61
6.58
6.23
5.38
3.97
2.00
-0.39
-3.00
-5.64
-8.16
-10.54
-12.86
-15.34
-18.26
-21.91
-26.48
-31.90
-37.74
-43.19
-47.17
-48.61
-46.80
-41.63
-33.65
-23.87
-13.49
-3.59
5.03
11.92
16.91
19.99
21.27
21.01
19.65
17.69
15.70
14.10
13.11
12.63
12.42
12.15
11.52
10.45
9.04
7.52
6.09
4.89
3.88
2.90
1.68
-0.01
-2.35
-5.35
-8.86
-12.59
-16.24
-19.66
-22.91
-26.29
-30.15
-34.63
-39.47
-43.89
-46.77
-47.06
-44.09
-37.82
-28.90
-18.44
-7.70
2.16
10.32
16.33
20.15
22.02
22.37
21.73
20.59
19.32
18.15
17.16
16.28
15.43
14.51
13.52
12.48
11.49
10.67
10.10
9.79
9.65
9.51
9.13
8.29
6.84
4.73
2.09
-0.95
-4.20
-7.57
-11.05
-14.72
-18.69
-22.98
-27.44
-31.69
-35.12
-36.99
-36.62
-33.63
-28.05
-20.36
-11.38
-2.07
6.66
14.09
19.77
23.62
25.78
26.58
26.42
25.67
24.61
23.44
22.30
21.28
20.39
19.53
18.56
17.38
15.95
14.45
13.11
12.11
11.50
11.13
10.70
9.98
8.81
7.24
5.39
3.40
1.33
-0.86
-3.35
-6.34
-9.95
-14.22
-18.99
-23.91
-28.48
-32.13
-34.29
-34.51
-32.53
-28.39
-22.43
-15.24
-7.54
-0.05
6.62
12.03
15.95
18.33
19.35
19.30
18.54
17.47
16.31
15.17
14.04
12.81
11.45
10.04
8.77
7.87
7.48
7.63
8.15
8.72
8.98
8.63
7.53
5.75
3.54
1.20
-1.02
-3.08
-5.15
-7.57
-10.73
-14.84
-19.84
-25.36
-30.77
-35.29
-38.21
-39.03
-37.54
-33.85
-28.36
-21.67
-14.44
-7.30
-0.78
4.76
9.07
12.05
13.69
14.10
13.52
12.28
10.78
9.38
8.28
7.53
7.05
6.69
6.39
6.15
6.07
6.22
6.49
6.69
6.50
5.69
4.13
1.94
-0.67
-3.42
-6.07
-8.56
-10.94
-13.40
-16.13
-19.25
-22.66
-26.03
-28.83
-30.40
-30.19
-27.83
-23.31
-16.96
-9.35
-1.23
6.64
13.60
19.18
23.11
25.34
26.01
25.42
23.93
21.92
19.73
17.63
15.78
14.25
13.03
12.08
11.35
10.78
10.35
9.96
9.51
8.86
7.84
6.37
4.48
2.30
0.04
-2.18
-4.35
-6.56
-9.06
-12.00
-15.48
-19.48
-23.82
-28.18
-32.12
-35.11
-36.60
-36.11
-33.39
-28.50
-21.80
-13.97
-5.80
1.93
8.66
14.05
18.01
20.58
21.88
22.12
21.53
20.43
19.14
17.89
16.80
15.81
14.84
13.83
12.78
11.79
10.92
10.18
9.46
8.62
7.49
5.98
4.04
1.72
-0.85
-3.54
-6.17
-8.75
-11.36
-14.23
-17.58
-21.49
-25.76
-29.84
-33.02
-34.56
-33.90
-30.86
-25.66
-18.84
-11.15
-3.39
3.83
10.08
15.15
18.98
21.60
23.07
23.51
23.13
22.14
20.81
19.32
17.78
16.22
14.65
13.14
11.87
10.99
10.58
10.53
10.53
10.22
9.30
7.68
5.45
2.84
0.07
-2.69
-5.42
-8.21
-11.19
-14.49
-18.21
-22.29
-26.50
-30.41
-33.40
-34.79
-34.08
-31.06
-25.92
-19.20
-11.65
-4.03
3.02
9.08
13.93
17.49
19.81
20.96
21.09
20.42
19.18
17.61
15.90
14.19
12.62
11.27
10.28
9.73
9.65
9.96
10.42
10.78
10.78
10.29
9.28
7.86
6.16
4.27
2.24
-0.02
-2.65
-5.80
-9.60
-14.02
-18.76
-23.28
-26.83
-28.71
-28.40
-25.83
-21.31
-15.48
-9.06
-2.66
3.27
8.47
12.71
15.85
17.75
18.36
17.79
16.29
14.18
11.83
9.55
7.61
6.17
5.31
4.97
5.01
5.22
5.36
5.28
4.93
4.32
3.50
2.48
1.22
-0.30
-2.12
-4.22
-6.63
-9.35
-12.43
-15.83
-19.38
-22.70
-25.27
-26.50
-25.96
-23.48
-19.23
-13.63
-7.31
-0.90
5.05
10.17
14.25
17.23
19.08
19.84
19.61
18.61
17.15
15.61
14.29
13.34
12.74
12.36
12.08
11.87
11.79
11.89
12.12
12.24
11.90
10.79
8.76
5.92
2.57
-0.91
-4.20
-7.17
-9.94
-12.78
-16.01
-19.76
-23.91
-28.02
-31.39
-33.30
-33.22
-30.96
-26.71
-20.96
-14.32
-7.38
-0.60
5.61
10.94
15.14
18.09
19.77
20.35
20.05
19.12
17.76
16.14
14.41
12.71
11.25
10.17
9.56
9.38
9.43
9.45
9.15
8.34
7.01
5.25
3.25
1.18
-0.89
-3.00
-5.25
-7.73
-10.49
-13.53
-16.83
-20.29
-23.72
-26.79
-29.00
-29.78
-28.72
-25.69
-20.94
-15.00
-8.58
-2.30
3.37
8.13
11.85
14.44
15.95
16.47
16.18
15.37
14.33
13.29
12.36
11.52
10.69
9.83
8.95
8.16
7.56
7.22
7.09
6.99
6.73
6.09
5.00
3.48
1.63
-0.43
-2.67
-5.14
-7.96
-11.21
-14.88
-18.81
-22.71
-26.11
-28.56
-29.62
-28.99
-26.64
-22.75
-17.74
-12.12
-6.42
-1.07
3.62
7.48
10.40
12.37
13.44
13.67
13.19
12.16
10.77
9.25
7.84
6.74
6.02
5.64
5.42
5.18
4.79
4.17
3.37
2.46
1.49
0.47
-0.61
-1.80
-3.17
-4.74
-6.55
-8.62
-10.97
-13.55
-16.24
-18.79
-20.80
-21.83
-21.47
-19.48
-15.92
-11.09
-5.46
0.43
6.14
11.29
15.61
18.88
21.05
22.18
22.47
22.26
21.93
21.79
21.96
22.44
23.09
23.84
24.73
25.86
27.42
29.53
32.04
34.69
37.16
39.17
40.82
42.40
44.29
47.03
50.87
55.59
60.56
65.06
68.57
71.46
74.82
79.95
88.40
100.95
117.02
134.85
152.23
167.07
179.01
189.02
198.62
210.03
224.51
241.27
257.31
268.18
268.96
257.25
233.36
199.90
162.09
125.43
93.71
68.28
48.40
31.56
16.19
1.09
-22.83
-59.88
-107.34
-154.96
-189.07
-194.69
-173.80
-137.83
-101.39
-76.63
-71.66
-86.45
-116.09
-154.60
-197.28
-241.34
-282.00
-312.18
-324.44
-312.50
-274.64
-215.11
-142.43
-66.06
5.72
68.34
119.13
154.85
172.58
170.55
149.45
113.03
67.24
17.97
-29.61
-72.34
-109.99
-143.14
-172.40
-197.86
-219.18
-236.12
-248.99
-258.05
-257.37
-242.03
-208.92
-159.17
-97.80
-31.71
32.60
90.26
138.49
176.36
202.62
218.83
226.79
228.61
226.41
221.75
215.30
206.83
195.66
180.25
161.49
140.19
117.65
95.19
73.60
52.84
32.22
10.78
-12.43
-37.42
-63.66
-89.84
-114.39
-136.14
-154.91
-171.97
-190.23
-213.17
-242.86
-278.19
-313.36
-338.82
-344.10
-321.29
-267.64
-186.78
-87.21
19.92
122.86
211.02
276.15
313.46
322.59
307.85
275.85
234.73
191.79
152.04
117.80
89.24
65.57
45.72
28.79
11.41
-9.25
-34.62
-63.69
-93.69
-121.71
-145.78
-165.52
-181.73
-199.82
-224.24
-257.30
-297.65
-341.36
-384.26
-423.42
-457.48
-486.12
-514.57
-546.70
-584.50
-625.95
-666.33
-700.89
-726.51
-741.76
-713.98
-623.61
-468.76
-271.65
-66.04
119.17
268.41
378.46
453.68
501.68
524.43
527.20
512.19
482.34
441.69
394.02
341.91
286.39
226.67
156.70
79.12
-1.34
-74.10
-125.47
-144.80
-129.18
-84.17
-20.83
41.67
98.19
146.45
186.48
218.48
241.09
252.03
250.52
235.55
210.48
183.83
162.50
149.66
143.47
138.89
131.23
119.02
103.89
89.93
79.18
69.60
57.98
42.38
22.90
1.32
-19.55
-37.86
-52.64
-63.75
-73.73
-86.16
-103.90
-128.88
-161.13
-198.00
-234.16
-261.15
-270.61
-258.16
-224.85
-175.84
-119.29
-63.39
-13.86
26.67
59.62
87.35
110.87
130.08
145.82
159.26
171.65
183.70
194.65
204.11
210.80
212.52
198.68
164.53
112.72
52.47
1.07
-36.63
-60.03
-70.37
-71.47
-65.88
-54.02
-35.94
-12.20
15.69
45.77
77.11
108.32
136.93
160.38
177.52
187.87
191.18
178.60
145.08
92.78
29.50
-35.44
-94.75
-144.00
-181.78
-208.63
-226.03
-234.74
-234.68
-225.49
-207.41
-181.36
-148.40
-109.73
-66.50
-19.57
27.17
70.89
109.32
140.72
163.88
178.34
184.13
181.83
172.53
158.57
143.32
129.81
119.80
113.45
109.55
106.17
101.65
94.99
86.59
78.13
71.40
67.62
67.36
70.79
77.46
85.78
92.36
92.43
81.64
58.00
23.63
-15.28
-50.67
-75.82
-88.05
-89.16
-83.74
-76.25
-69.11
-62.50
-55.53
-47.81
-40.18
-34.27
-31.41
-31.71
-33.99
-36.62
-38.10
-38.02
-36.99
-36.18
-36.68
-38.98
-42.66
-46.60
-49.53
-50.47
-49.18
-46.06
-41.96
-37.69
-34.01
-31.21
-29.19
-27.69
-26.36
-24.92
-23.18
-21.01
-18.38
-15.74
-13.60
-12.51
-12.90
-14.84
-17.90
-21.28
-23.99
-25.21
-25.31
-25.17
-26.05
-29.12
-34.94
-43.07
-52.39
-61.30
-68.39
-73.71
-78.03
-82.95
-90.76
-104.09
-125.32
-155.70
-194.74
-234.17
-265.42
-279.80
-271.23
-238.61
-186.46
-123.29
-58.63
0.11
49.24
87.78
116.95
138.40
153.38
162.75
167.42
168.42
166.68
162.54
154.98
142.77
124.93
101.64
74.52
46.37
20.33
-0.93
-15.91
-24.70
-28.28
-28.08
-25.54
-21.91
-18.10
-14.74
-12.09
-10.20
-9.22
-9.36
-11.03
-14.74
-20.91
-29.68
-40.79
-53.51
-66.63
-78.64
-87.71
-92.05
-90.28
-81.90
-67.49
-48.56
-27.13
-5.21
15.47
33.64
48.27
58.64
64.38
65.58
63.02
57.99
52.05
46.65
42.82
40.86
40.45
40.76
40.79
39.73
37.28
33.74
29.81
26.25
23.44
21.32
19.43
17.26
14.45
10.80
6.07
-0.20
-8.55
-19.28
-31.90
-44.85
-55.77
-62.18
-62.36
-55.95
-44.00
-28.53
-11.76
4.47
18.94
31.02
40.41
47.05
51.01
52.57
52.22
50.62
48.42
46.07
43.82
41.63
39.29
36.62
33.48
29.88
25.97
21.90
17.79
13.67
9.52
5.41
1.51
-1.92
-4.77
-7.28
-10.02
-13.82
-19.32
-26.63
-35.12
-43.43
-49.89
-52.94
-51.55
-45.44
-35.12
-21.68
-6.58
8.65
22.67
34.52
43.64
49.91
53.45
54.61
53.83
51.62
48.46
44.77
40.78
36.51
31.86
26.70
21.06
15.20
9.61
4.81
1.23
-0.94
-1.90
-2.11
-2.23
-2.99
-5.09
-9.07
-15.19
-23.27
-32.59
-41.93
-49.69
-54.26
-54.41
-49.63
-40.18
-27.05
-11.68
4.37
19.66
33.04
43.77
51.42
55.88
57.29
55.97
52.47
47.50
41.89
36.43
31.72
27.98
25.02
22.40
19.65
16.54
13.17
9.92
7.14
4.99
3.30
1.63
-0.59
-3.82
-8.39
-14.44
-21.90
-30.43
-39.33
-47.52
-53.57
-56.06
-53.93
-46.74
-34.90
-19.62
-2.62
14.20
29.16
41.07
49.40
54.22
55.97
55.28
52.74
48.93
44.38
39.72
35.56
32.34
30.18
28.79
27.62
26.10
23.91
21.06
17.87
14.72
11.84
9.24
6.67
3.78
0.25
-4.11
-9.43
-15.78
-23.17
-31.43
-40.04
-47.97
-53.87
-56.25
-54.04
-46.90
-35.39
-20.83
-4.89
10.81
24.97
36.74
45.65
51.54
54.49
54.81
53.03
49.80
45.83
41.75
37.97
34.65
31.76
29.11
26.54
23.96
21.44
19.09
17.02
15.24
13.61
11.85
9.68
6.89
3.44
-0.61
-5.18
-10.29
-16.12
-22.90
-30.69
-39.16
-47.43
-54.21
-58.03
-57.70
-52.65
-43.14
-30.16
-15.18
0.16
14.41
26.48
35.72
41.93
45.25
46.09
44.99
42.53
39.23
35.53
31.77
28.15
24.84
21.95
19.56
17.68
16.27
15.21
14.30
13.29
11.94
10.05
7.55
4.45
0.86
-3.09
-7.38
-12.12
-17.54
-23.85
-30.97
-38.44
-45.33
-50.44
-52.61
-51.01
-45.38
-36.11
-24.13
-10.68
2.85
15.25
25.59
33.34
38.33
40.68
40.67
38.67
35.10
30.46
25.33
20.26
15.73
12.02
9.17
7.07
5.52
4.31
3.28
2.28
1.16
-0.25
-2.06
-4.36
-7.15
-10.37
-14.00
-18.08
-22.74
-28.10
-34.09
-40.30
-45.95
-49.95
-51.22
-48.95
-42.90
-33.47
-21.62
-8.62
4.20
15.74
25.21
32.13
36.38
38.06
37.51
35.23
31.80
27.81
23.73
19.90
16.54
13.72
11.49
9.79
8.49
7.34
6.04
4.34
2.14
-0.47
-3.29
-6.13
-8.98
-11.98
-15.41
-19.56
-24.59
-30.42
-36.72
-42.88
-48.05
-51.29
-51.74
-48.78
-42.28
-32.62
-20.66
-7.57
5.37
17.03
26.57
33.48
37.62
39.18
38.54
36.19
32.69
28.55
24.27
20.27
16.86
14.20
12.21
10.68
9.30
7.81
6.12
4.23
2.26
0.27
-1.75
-3.94
-6.48
-9.55
-13.27
-17.71
-22.90
-28.78
-35.14
-41.50
-47.15
-51.11
-52.44
-50.42
-44.82
-35.98
-24.72
-12.17
0.46
12.13
22.04
29.69
34.89
37.68
38.31
37.17
34.69
31.37
27.66
24.02
20.74
18.02
15.88
14.24
12.90
11.70
10.49
9.17
7.70
6.02
4.08
1.84
-0.74
-3.67
-6.93
-10.56
-14.66
-19.38
-24.81
-30.86
-37.10
-42.69
-46.61
-47.87
-45.81
-40.32
-31.91
-21.46
-10.08
1.23
11.63
20.53
27.52
32.35
34.94
35.37
33.87
30.90
27.05
22.97
19.18
16.02
13.58
11.74
10.29
9.06
7.97
7.02
6.17
5.35
4.36
3.02
1.19
-1.13
-3.84
-6.83
-10.06
-13.63
-17.77
-22.68
-28.38
-34.56
-40.52
-45.24
-47.67
-46.96
-42.75
-35.28
-25.31
-13.96
-2.36
8.48
17.86
25.37
30.78
33.98
34.94
33.81
30.91
26.79
22.14
17.65
13.82
10.82
8.59
6.84
5.31
3.87
2.49
1.22
0.09
-0.95
-2.01
-3.17
-4.57
-6.32
-8.63
-11.77
-15.97
-21.25
-27.28
-33.36
-38.48
-41.55
-41.71
-38.48
-31.90
-22.54
-11.31
0.66
12.25
22.53
30.85
36.84
40.41
41.64
40.73
37.99
33.90
29.02
23.98
19.35
15.51
12.60
10.52
8.99
7.70
6.38
4.87
3.11
1.09
-1.15
-3.57
-6.17
-9.01
-12.21
-15.93
-20.38
-25.66
-31.65
-37.91
-43.66
-47.88
-49.51
-47.75
-42.26
-33.33
-21.81
-8.90
4.06
15.87
25.66
32.92
37.45
39.37
38.97
36.70
33.17
29.04
24.92
21.26
18.26
15.83
13.79
11.94
10.20
8.59
7.17
5.89
4.62
3.18
1.43
-0.63
-2.91
-5.39
-8.18
-11.57
-15.88
-21.31
-27.71
-34.53
-40.87
-45.65
-47.84
-46.72
-41.97
-33.84
-23.05
-10.66
2.06
13.89
23.81
31.16
35.64
37.35
36.70
34.28
30.77
26.75
22.70
18.91
15.51
12.53
9.97
7.87
6.25
5.08
4.26
3.59
2.86
1.82
0.34
-1.63
-4.06
-6.95
-10.33
-14.29
-18.90
-24.20
-30.00
-35.91
-41.27
-45.24
-46.96
-45.66
-40.96
-32.96
-22.28
-9.97
2.67
14.44
24.36
31.85
36.68
38.96
38.93
37.00
33.64
29.36
24.72
20.25
16.36
13.31
11.12
9.66
8.69
7.94
7.20
6.35
5.38
4.33
3.19
1.85
0.15
-2.14
-5.18
-9.07
-13.76
-19.08
-24.66
-29.96
-34.24
-36.66
-36.46
-33.18
-26.83
-17.90
-7.25
4.02
14.88
24.46
32.09
37.39
40.22
40.64
38.95
35.63
31.25
26.45
21.79
17.70
14.44
12.08
10.54
9.64
9.11
8.72
8.19
7.31
5.93
3.96
1.50
-1.33
-4.31
-7.34
-10.53
-14.15
-18.52
-23.84
-29.89
-36.02
-41.20
-44.28
-44.30
-40.74
-33.65
-23.64
-11.73
0.83
12.78
23.05
30.91
36.04
38.50
38.62
36.90
33.90
30.14
26.09
22.10
18.41
15.21
12.58
10.55
9.09
8.05
7.20
6.27
4.98
3.18
0.87
-1.86
-4.82
-7.88
-11.00
-14.23
-17.72
-21.65
-26.23
-31.48
-37.18
-42.72
-47.18
-49.47
-48.64
-44.19
-36.23
-25.52
-13.21
-0.62
11.05
20.94
28.49
33.47
35.91
36.02
34.20
30.99
27.02
22.89
19.10
15.94
13.51
11.74
10.47
9.51
8.72
7.95
7.06
5.92
4.38
2.41
0.01
-2.71
-5.59
-8.54
-11.57
-14.80
-18.42
-22.61
-27.41
-32.61
-37.69
-41.92
-44.40
-44.29
-41.05
-34.59
-25.41
-14.48
-3.04
7.69
16.82
23.85
28.69
31.46
32.38
31.67
29.58
26.49
22.85
19.23
16.03
13.52
11.71
10.46
9.53
8.74
8.00
7.21
6.27
5.03
3.33
1.07
-1.68
-4.79
-8.07
-11.39
-14.83
-18.57
-22.80
-27.56
-32.59
-37.37
-41.14
-43.08
-42.48
-38.88
-32.22
-22.95
-11.97
-0.49
10.23
19.25
26.02
30.49
32.86
33.41
32.37
29.92
26.32
21.98
17.50
13.45
10.27
8.13
6.88
6.28
6.02
5.90
5.76
5.44
4.76
3.55
1.70
-0.74
-3.63
-6.78
-10.15
-13.85
-18.05
-22.84
-27.94
-32.71
-36.20
-37.41
-35.59
-30.52
-22.53
-12.49
-1.54
9.10
18.39
25.65
30.56
33.11
33.50
32.04
29.11
25.16
20.70
16.31
12.50
9.62
7.76
6.71
6.07
5.41
4.40
2.94
1.14
-0.84
-2.86
-4.91
-7.09
-9.53
-12.30
-15.46
-19.01
-23.02
-27.52
-32.43
-37.39
-41.69
-44.38
-44.51
-41.48
-35.23
-26.30
-15.71
-4.58
5.97
15.12
22.33
27.34
30.07
30.67
29.45
26.85
23.40
19.66
16.07
12.93
10.35
8.32
6.75
5.50
4.45
3.47
2.45
1.27
-0.13
-1.82
-3.79
-6.03
-8.55
-11.40
-14.73
-18.70
-23.42
-28.77
-34.38
-39.50
-43.20
-44.52
-42.80
-37.79
-29.87
-19.84
-8.81
2.13
12.06
20.29
26.35
30.02
31.27
30.34
27.69
23.98
19.87
15.91
12.43
9.57
7.29
5.56
4.31
3.51
3.03
2.69
2.21
1.36
-0.00
-1.90
-4.22
-6.85
-9.73
-12.88
-16.41
-20.48
-25.16
-30.33
-35.61
-40.32
-43.61
-44.56
-42.52
-37.28
-29.14
-18.95
-7.83
3.04
12.69
20.43
25.93
29.16
30.31
29.68
27.73
24.93
21.77
18.69
15.98
13.78
12.08
10.72
9.50
8.27
6.94
5.49
3.98
2.43
0.80
-0.98
-3.03
-5.45
-8.34
-11.79
-15.86
-20.52
-25.59
-30.65
-35.05
-37.97
-38.60
-36.37
-31.13
-23.22
-13.36
-2.57
8.07
17.63
25.40
30.96
34.16
35.14
34.18
31.70
28.20
24.18
20.13
16.46
13.50
11.35
9.96
9.05
8.30
7.38
6.13
4.55
2.73
0.76
-1.35
-3.73
-6.58
-10.08
-14.34
-19.29
-24.75
-30.31
-35.39
-39.24
-41.04
-40.11
-36.02
-28.86
-19.23
-8.08
3.42
14.16
23.22
29.99
34.17
35.76
35.01
32.40
28.54
24.08
19.65
15.71
12.52
10.11
8.35
7.04
5.95
4.88
3.73
2.44
0.95
-0.74
-2.68
-4.88
-7.42
-10.38
-13.93
-18.22
-23.29
-28.92
-34.59
-39.45
-42.52
-42.92
-40.14
-34.20
-25.61
-15.21
-4.03
6.93
16.82
24.92
30.76
34.09
35.00
33.83
31.14
27.59
23.78
20.19
17.08
14.61
12.75
11.42
10.45
9.62
8.71
7.53
5.97
4.05
1.83
-0.57
-3.11
-5.85
-8.94
-12.60
-17.04
-22.29
-28.17
-34.16
-39.45
-43.10
-44.17
-42.07
-36.62
-28.18
-17.62
-6.04
5.34
15.51
23.70
29.53
32.89
33.96
33.05
30.58
27.06
22.97
18.79
14.95
11.78
9.44
7.92
7.04
6.49
5.93
5.10
3.89
2.35
0.64
-1.05
-2.67
-4.31
-6.25
-8.84
-12.38
-16.97
-22.43
-28.21
-33.53
-37.41
-38.94
-37.46
-32.72
-25.01
-15.05
-3.91
7.30
17.56
26.15
32.64
36.79
38.60
38.20
35.87
32.14
27.63
23.03
18.87
15.48
12.91
11.02
9.63
8.55
7.66
6.87
6.10
5.23
4.13
2.67
0.76
-1.66
-4.61
-8.11
-12.17
-16.80
-21.93
-27.24
-32.19
-35.95
-37.61
-36.42
-32.00
-24.54
-14.74
-3.67
7.54
17.86
26.53
33.06
37.20
38.94
38.44
36.08
32.40
28.04
23.58
19.49
16.02
13.24
11.08
9.37
7.98
6.73
5.52
4.28
2.99
1.65
0.27
-1.21
-2.90
-4.94
-7.57
-10.98
-15.25
-20.35
-26.03
-31.80
-36.96
-40.68
-42.11
-40.62
-35.99
-28.49
-18.81
-7.97
2.96
13.02
21.54
28.06
32.33
34.31
34.14
32.20
29.05
25.34
21.66
18.44
15.85
13.90
12.45
11.35
10.44
9.61
8.75
7.72
6.41
4.71
2.52
-0.11
-3.09
-6.23
-9.38
-12.53
-15.88
-19.77
-24.45
-29.88
-35.52
-40.44
-43.58
-44.01
-41.27
-35.40
-26.92
-16.69
-5.73
4.95
14.43
21.98
27.23
30.13
30.93
30.03
27.93
25.09
21.90
18.72
15.82
13.40
11.52
10.14
9.13
8.34
7.65
6.97
6.20
5.30
4.17
2.78
1.11
-0.84
-3.08
-5.66
-8.70
-12.34
-16.66
-21.57
-26.77
-31.70
-35.61
-37.66
-37.17
-33.77
-27.56
-19.09
-9.28
0.81
10.19
18.10
24.09
27.99
29.83
29.77
28.10
25.24
21.67
17.92
14.43
11.53
9.34
7.85
6.95
6.44
6.14
5.85
5.39
4.60
3.40
1.80
-0.17
-2.48
-5.12
-8.16
-11.68
-15.71
-20.15
-24.75
-28.99
-32.12
-33.33
-31.94
-27.64
-20.68
-11.79
-2.05
7.41
15.73
22.40
27.25
30.32
31.68
31.44
29.73
26.84
23.21
19.39
15.89
13.00
10.76
9.01
7.50
6.04
4.57
3.13
1.80
0.58
-0.64
-2.00
-3.69
-5.83
-8.48
-11.71
-15.50
-19.85
-24.58
-29.35
-33.58
-36.53
-37.44
-35.75
-31.30
-24.40
-15.77
-6.40
2.76
10.91
17.54
22.42
25.45
26.70
26.31
24.52
21.65
18.14
14.48
11.12
8.34
6.26
4.77
3.63
2.59
1.50
0.34
-0.82
-1.91
-2.91
-3.91
-5.08
-6.61
-8.67
-11.38
-14.83
-19.03
-23.86
-28.97
-33.75
-37.38
-39.03
-38.02
-34.09
-27.46
-18.87
-9.35
0.06
8.45
15.30
20.33
23.57
25.10
25.03
23.56
20.98
17.78
14.52
11.75
9.78
8.60
7.92
7.30
6.41
5.10
3.46
1.70
0.01
-1.57
-3.11
-4.79
-6.77
-9.11
-11.88
-15.11
-18.84
-23.07
-27.64
-32.05
-35.58
-37.36
-36.65
-33.15
-27.06
-19.02
-9.95
-0.76
7.82
15.24
21.12
25.22
27.43
27.80
26.59
24.21
21.14
17.81
14.59
11.73
9.44
7.82
6.83
6.29
5.90
5.35
4.46
3.24
1.84
0.45
-0.87
-2.25
-3.95
-6.22
-9.18
-12.75
-16.64
-20.36
-23.27
-24.70
-24.03
-20.83
-15.01
-6.84
3.12
14.08
25.23
35.82
45.22
52.92
58.62
62.19
63.80
63.90
63.06
61.97
61.39
61.86
63.62
66.43
69.73
72.91
75.62
77.86
80.05
82.86
86.84
91.93
97.37
101.80
103.84
102.65
98.16
91.14
82.87
74.24
64.97
53.28
36.33
11.09
-24.85
-72.95
-131.94
-196.60
-257.67
-303.28
-321.93
-305.79
-253.48
-171.20
-73.26
23.01
102.40
155.58
180.02
178.68
157.99
125.96
90.71
56.70
26.75
2.69
-14.46
-25.59
-34.00
-44.48
-61.11
-85.59
-120.19
-164.86
-216.54
-269.63
-318.49
-359.48
-391.48
-414.95
-409.32
-361.31
-272.00
-158.61
-43.33
58.58
141.80
207.28
258.43
298.74
327.64
343.69
347.45
342.39
333.22
323.68
315.70
309.76
305.80
300.93
291.99
278.04
260.90
243.55
228.40
216.27
206.34
196.30
187.42
178.42
168.70
158.85
150.15
143.53
139.26
137.10
136.67
136.96
136.21
133.55
129.05
123.19
116.31
108.47
99.59
89.74
78.97
66.96
53.99
40.58
27.49
15.24
4.22
-5.32
-13.13
-18.99
-23.25
-26.37
-29.09
-32.34
-37.00
-43.61
-52.08
-61.65
-71.23
-79.61
-85.43
-87.72
-86.41
-82.41
-77.28
-72.96
-71.19
-73.69
-81.58
-95.33
-114.90
-140.12
-171.09
-208.59
-254.40
-310.65
-378.91
-457.25
-538.64
-611.70
-664.10
-686.75
-676.28
-635.60
-571.31
-493.22
-409.60
-326.50
-248.78
-181.92
-131.81
-101.86
-92.29
-99.14
-121.44
-157.94
-206.44
-262.56
-320.08
-371.67
-408.62
-425.66
-421.02
-404.25
-384.53
-364.73
-340.50
-306.00
-260.23
-207.71
-161.31
-134.48
-146.20
-204.86
-303.50
-422.42
-538.56
-634.07
-697.41
-729.10
-674.73
-515.71
-279.27
-25.58
192.78
355.76
456.75
525.95
583.88
640.19
686.16
710.90
708.35
677.51
622.05
548.61
470.30
399.30
347.62
314.24
292.27
274.14
255.09
233.77
210.84
192.56
183.55
188.47
204.66
227.62
254.29
281.87
305.99
318.43
313.77
289.80
252.02
208.31
168.02
140.13
128.90
132.75
144.12
157.31
169.20
181.48
196.49
206.21
205.79
192.94
179.84
164.70
143.24
106.06
53.08
-9.18
-69.79
-116.50
-141.48
-145.24
-136.52
-126.98
-125.48
-132.99
-145.27
-155.58
-160.05
-156.34
-142.20
-116.38
-76.56
-22.43
41.15
102.02
144.58
156.51
134.65
87.08
29.44
-20.01
-47.16
-48.21
-33.01
-17.02
-14.40
-30.24
-58.98
-86.62
-104.15
-106.06
-90.94
-60.10
-17.74
29.21
70.97
96.45
97.02
71.22
27.40
-20.86
-59.12
-77.05
-72.77
-52.07
-24.86
-3.41
3.85
3.97
4.75
8.62
18.20
35.61
62.49
98.75
141.63
185.64
223.63
246.76
249.21
230.77
195.07
146.76
88.70
22.36
-49.67
-121.44
-185.38
-232.81
-257.03
-257.41
-237.69
-207.41
-178.58
-160.30
-150.65
-142.81
-129.60
-105.82
-69.25
-20.24
38.60
103.24
168.36
226.97
