1545056413.00
64.000000
-0.00
-0.00
-0.00
-0.00
-0.00
-0.00
-0.00
-0.00
-0.00
-0.00
0.00
0.01
0.01
-0.00
-0.03
-0.05
-0.05
0.00
0.13
0.36
0.66
1.01
1.37
1.72
2.06
2.40
2.79
3.24
3.80
4.42
5.06
5.66
6.20
6.68
7.15
7.68
8.31
9.14
10.09
11.04
11.88
12.56
13.14
13.76
14.65
15.96
17.91
20.32
22.90
25.38
27.58
29.57
31.68
34.32
37.81
42.54
48.15
54.10
59.83
64.97
69.58
74.14
79.34
85.71
93.76
103.00
112.62
121.73
129.77
136.75
143.30
150.75
157.77
166.64
177.95
191.79
206.97
220.57
228.25
225.36
208.53
176.87
132.76
80.05
23.07
-34.94
-92.44
-149.16
-205.23
-260.37
-313.74
-363.87
-409.83
-450.91
-486.50
-515.74
-537.23
-549.22
-549.96
-538.37
-514.21
-478.67
-433.88
-382.45
-327.02
-269.84
-212.63
-156.66
-102.95
-52.37
-5.90
35.58
71.43
101.35
125.50
144.38
158.69
169.15
176.37
180.75
182.57
182.07
179.51
175.23
169.65
163.18
156.15
148.81
141.30
133.69
126.02
118.33
110.69
103.16
95.80
88.68
81.83
75.25
68.95
62.95
57.25
51.86
46.78
42.03
37.59
33.45
29.61
26.07
22.81
19.83
17.11
14.67
12.48
10.54
8.83
7.35
6.07
4.97
4.05
3.27
2.62
2.09
1.65
1.30
1.01
0.79
0.61
0.48
0.37
0.29
0.24
0.20
0.18
0.17
0.18
0.19
0.21
0.24
0.27
0.31
0.35
0.39
0.44
0.48
0.53
0.58
0.63
0.69
0.75
0.81
0.88
0.95
1.04
1.13
1.23
1.34
1.47
1.62
1.78
1.96
2.16
2.38
2.63
2.90
3.20
3.53
3.89
4.29
4.72
5.18
5.69
6.23
6.81
7.43
8.10
8.81
9.57
10.37
11.22
12.11
13.05
14.04
15.09
16.21
17.39
18.62
19.91
21.19
22.43
23.54
24.42
24.96
25.02
24.50
23.29
21.37
18.73
15.43
11.54
7.26
2.76
-1.72
-5.99
-9.84
-13.11
-15.71
-17.57
-18.68
-19.08
-18.87
-18.13
-16.99
-15.57
-13.97
-12.31
-10.66
-9.03
-7.42
-5.84
-4.25
-2.64
-0.98
0.73
2.47
4.25
6.07
8.05
10.12
12.29
14.59
16.99
19.48
21.99
24.49
27.03
29.79
32.70
35.78
39.13
42.70
46.42
50.12
53.69
57.14
60.79
64.52
68.49
72.80
77.38
81.96
86.10
89.47
91.98
93.97
95.37
96.46
97.33
97.69
96.76
93.24
85.55
71.78
54.89
36.13
16.63
-2.78
-21.73
-40.34
-59.10
-78.73
-100.02
-123.62
-150.28
-179.35
-208.47
-233.82
-251.09
-257.06
-250.92
-234.63
-212.13
-188.19
-166.29
-147.79
-132.41
-119.14
-107.23
-96.57
-87.42
-79.91
-74.09
-69.63
-66.16
-63.51
-61.59
-60.11
-58.29
-54.79
-48.06
-37.15
-21.92
-3.36
16.64
35.80
52.06
64.07
71.45
74.63
74.55
72.26
68.80
64.91
61.17
57.90
55.32
53.47
52.28
51.51
50.87
50.05
48.76
46.77
43.88
39.94
34.89
28.86
22.17
15.33
8.90
3.27
-1.47
-5.61
-9.76
-14.66
-20.90
-28.60
-37.15
-45.20
-50.86
-52.18
-47.90
-37.89
-23.30
-6.28
10.76
25.80
37.64
45.90
50.78
52.68
51.98
49.09
44.55
39.13
33.74
29.22
26.16
24.74
24.68
25.48
26.52
27.25
27.25
26.31
24.32
21.29
17.32
12.58
7.39
2.11
-3.00
-7.79
-12.41
-17.25
-22.81
-29.50
-37.35
-45.76
-53.50
-58.90
-60.27
-56.43
-47.20
-33.53
-17.31
-0.84
13.79
25.22
32.95
37.22
38.62
37.73
35.02
30.90
25.83
20.52
15.78
12.37
10.74
10.90
12.37
14.38
16.06
16.70
15.92
13.67
10.24
6.12
1.79
-2.46
-6.60
-10.91
-15.91
-22.07
-29.71
-38.70
-48.33
-57.23
-63.65
-65.85
-62.62
-53.69
-39.97
-23.29
-5.90
10.14
23.36
33.07
39.25
42.18
42.27
39.99
35.88
30.64
25.19
20.47
17.29
16.01
16.47
18.03
19.73
20.67
20.25
18.28
14.98
10.79
6.16
1.40
-3.42
-8.39
-13.72
-19.71
-26.64
-34.69
-43.81
-53.41
-62.27
-68.63
-70.68
-67.12
-57.78
-43.70
-26.86
-9.57
6.23
19.29
29.08
35.53
38.82
39.18
36.98
32.88
27.76
22.71
18.75
16.55
16.26
17.44
19.24
20.66
20.86
19.48
16.65
12.90
8.88
5.02
1.39
-2.39
-6.91
-12.80
-20.46
-29.92
-40.70
-51.74
-61.40
-67.74
-68.97
-64.00
-52.90
-36.91
-18.22
0.71
17.73
31.43
41.16
46.87
48.84
47.51
43.53
37.79
31.39
25.50
21.11
18.75
18.39
19.48
21.07
22.18
22.02
20.23
16.92
12.56
7.78
3.08
-1.37
-5.74
-10.48
-16.13
-23.13
-31.65
-41.41
-51.58
-60.72
-66.96
-68.42
-63.75
-52.72
-36.45
-17.18
2.39
19.86
33.71
43.41
49.14
51.35
50.46
46.86
41.13
34.25
27.54
22.32
19.49
19.20
20.83
23.19
25.03
25.38
23.80
20.43
15.80
10.56
5.25
0.16
-4.76
-9.77
-15.27
-21.62
-29.13
-37.97
-47.98
-58.48
-68.11
-74.89
-76.71
-71.98
-60.33
-42.91
-22.08
-0.75
18.49
33.92
44.89
51.48
54.17
53.47
49.96
44.35
37.66
31.16
26.02
23.12
22.66
24.18
26.68
28.94
29.87
28.75
25.42
20.25
13.93
7.28
0.94
-4.82
-10.14
-15.43
-21.23
-28.01
-36.09
-45.48
-55.69
-65.59
-73.38
-76.91
-74.30
-64.63
-48.47
-27.81
-5.52
15.51
33.13
46.24
54.68
58.86
59.42
57.04
52.48
46.65
40.58
35.28
31.53
29.66
29.51
30.53
31.92
32.84
32.61
30.83
27.42
22.61
16.81
10.54
4.23
-1.84
-7.55
-13.08
-18.76
-25.13
-32.72
-41.89
-52.51
-63.62
-73.44
-79.59
-79.77
-72.52
-57.95
-37.77
-14.95
7.25
26.16
40.33
49.55
54.40
55.77
54.40
50.87
45.78
39.94
34.39
30.24
28.22
28.50
30.55
33.37
35.84
37.05
36.49
34.09
30.12
25.04
19.37
13.51
7.69
1.88
-4.15
-10.83
-18.61
-27.81
-38.35
-49.56
-60.13
-68.17
-71.64
-68.94
-59.48
-44.02
-24.57
-3.88
15.31
30.94
41.99
48.39
50.63
49.44
45.52
39.58
32.47
25.27
19.16
15.15
13.77
14.75
17.19
19.76
21.20
20.71
18.13
13.91
8.82
3.57
-1.45
-6.26
-11.24
-16.93
-23.78
-32.12
-41.97
-52.94
-64.09
-73.87
-80.23
-81.08
-75.00
-61.77
-42.71
-20.38
2.15
22.15
37.88
48.69
54.83
56.94
55.73
51.84
45.99
39.10
32.29
26.68
23.12
21.86
22.50
24.11
25.50
25.66
23.99
20.50
15.61
9.96
4.11
-1.59
-7.07
-12.49
-18.10
-24.18
-31.09
-39.10
-48.25
-57.98
-66.98
-73.25
-74.58
-69.34
-57.15
-39.18
-17.90
3.72
23.03
38.34
49.06
55.34
57.74
56.83
53.23
47.69
41.23
35.07
30.34
27.73
27.31
28.50
30.29
31.55
31.39
29.36
25.51
20.29
14.38
8.37
2.53
-3.24
-9.41
-16.54
-25.10
-35.15
-46.26
-57.45
-67.21
-73.75
-75.31
-70.66
-59.50
-42.81
-22.62
-1.55
17.85
33.78
45.34
52.42
55.42
54.86
51.32
45.49
38.31
30.97
24.68
20.37
18.34
18.16
18.85
19.26
18.50
16.20
12.64
8.44
4.21
0.30
-3.48
-7.66
-12.92
-19.81
-28.52
-38.88
-50.23
-61.39
-70.73
-76.30
-76.29
-69.61
-56.36
-37.96
-16.89
4.07
22.54
36.97
46.72
51.83
52.63
49.66
43.68
35.76
27.29
19.74
14.32
11.57
11.19
12.20
13.29
13.40
12.03
9.36
6.02
2.71
-0.29
-3.26
-6.93
-12.21
-19.74
-29.62
-41.30
-53.55
-64.62
-72.51
-75.27
-71.57
-61.12
-44.89
-25.02
-4.21
14.93
30.56
41.76
48.42
50.89
49.64
45.25
38.51
30.61
23.02
17.16
13.90
13.24
14.35
15.87
16.51
15.53
12.92
9.19
5.08
1.08
-2.74
-6.74
-11.56
-17.83
-25.98
-36.01
-47.43
-59.10
-69.25
-75.73
-76.50
-70.28
-57.05
-38.33
-16.71
4.79
23.64
38.33
48.39
54.06
55.84
54.19
49.57
42.70
34.74
27.19
21.47
18.44
18.07
19.43
21.13
21.88
20.97
18.44
14.87
10.99
7.24
3.60
-0.39
-5.41
-12.06
-20.71
-31.29
-43.23
-55.36
-65.94
-72.88
-74.19
-68.57
-55.93
-37.60
-16.02
5.97
25.83
41.93
53.67
61.17
64.79
64.91
61.86
56.20
48.87
41.26
34.81
30.57
28.85
29.13
30.34
31.28
31.08
29.39
26.37
22.50
18.26
13.98
9.64
4.97
-0.50
-7.26
-15.66
-25.76
-37.20
-49.02
-59.68
-67.22
-69.62
-65.47
-54.45
-37.63
-17.30
3.69
22.73
37.96
48.52
54.36
55.85
53.57
48.21
40.70
32.26
24.23
17.87
13.98
12.61
13.10
14.30
15.02
14.36
12.07
8.43
4.08
-0.39
-4.74
-9.20
-14.28
-20.56
-28.41
-37.85
-48.57
-59.85
-70.52
-78.93
-83.19
-81.58
-73.22
-58.56
-39.39
-18.43
1.53
18.37
31.05
39.48
44.11
45.38
43.62
39.16
32.66
25.23
18.36
13.38
11.03
11.13
12.67
14.26
14.68
13.34
10.39
6.51
2.43
-1.36
-4.88
-8.57
-13.02
-18.84
-26.45
-35.87
-46.69
-57.83
-67.58
-73.80
-74.48
-68.35
-55.48
-37.38
-16.57
4.08
22.24
36.50
46.42
52.20
54.21
52.85
48.51
41.90
34.13
26.64
20.85
17.66
17.16
18.53
20.48
21.62
21.06
18.58
14.60
9.84
4.98
0.35
-4.16
-8.96
-14.60
-21.59
-30.18
-40.21
-50.93
-60.96
-68.40
-71.21
-67.85
-57.86
-42.12
-22.69
-2.21
16.83
32.62
44.27
51.59
54.74
54.18
50.50
44.68
37.93
31.63
26.95
24.52
24.32
25.75
27.89
29.78
30.72
30.44
29.08
27.08
24.91
22.73
20.25
16.76
11.38
3.42
-7.26
-20.09
-33.82
-46.71
-56.80
-62.26
-61.81
-55.09
-42.83
-26.76
-9.21
7.46
21.47
31.79
38.14
40.67
39.76
35.86
29.64
22.09
14.50
8.21
4.28
3.06
4.10
6.28
8.25
8.95
7.98
5.55
2.34
-1.04
-4.36
-7.83
-11.96
-17.26
-23.95
-31.82
-40.24
-48.21
-54.44
-57.54
-56.29
-49.99
-38.79
-23.75
-6.72
10.15
24.88
36.02
42.74
44.86
42.62
36.71
28.25
18.71
9.75
2.83
-1.14
-2.13
-0.93
1.13
2.67
2.71
0.94
-2.31
-6.35
-10.44
-14.17
-17.59
-21.24
-25.93
-32.41
-41.10
-51.73
-63.14
-73.40
-80.18
-81.34
-75.67
-63.31
-45.76
-25.52
-5.30
12.59
26.69
36.41
41.72
42.99
40.76
35.80
29.19
22.26
16.35
12.48
11.03
11.62
13.30
14.93
15.58
14.84
12.88
10.19
7.33
4.54
1.61
-2.01
-6.97
-13.71
-22.25
-32.12
-42.31
-51.42
-57.79
-59.83
-56.48
-47.62
-34.21
-18.18
-1.85
12.74
24.26
32.24
36.77
38.14
36.60
32.48
26.38
19.39
12.95
8.46
6.73
7.69
10.43
13.55
15.77
16.37
15.33
13.16
10.57
7.96
5.35
2.32
-1.67
-7.15
-14.33
-23.06
-32.74
-42.40
-50.65
-55.87
-56.59
-51.85
-41.61
-26.89
-9.62
7.87
23.45
35.55
43.38
46.77
46.04
41.81
35.05
27.08
19.46
13.72
10.94
11.30
14.01
17.58
20.38
21.23
19.74
16.25
11.55
6.32
0.78
-5.31
-12.51
-21.32
-31.86
-43.73
-55.98
-67.11
-75.39
-79.04
-76.74
-68.04
-53.63
-35.33
-15.75
2.38
16.79
26.12
30.03
29.04
24.14
16.52
7.41
-1.97
-10.44
-16.89
-20.57
-21.22
-19.32
-15.98
-12.63
-10.47
-10.13
-11.43
-13.69
-16.17
-18.51
-20.97
-24.23
-29.05
-35.79
-44.12
-52.91
-60.45
-64.76
-64.02
-57.15
-44.10
-26.00
-4.95
16.53
36.12
52.18
63.88
71.07
73.96
72.92
68.48
61.45
53.01
44.61
37.54
32.58
29.67
28.03
26.48
24.00
20.10
14.96
9.17
3.35
-2.16
-7.48
-13.08
-19.53
-27.29
-36.46
-46.63
-56.85
-65.61
-71.06
-71.44
-65.68
-53.85
-37.30
-18.31
0.60
17.34
30.70
40.30
46.24
48.80
48.25
45.01
39.80
33.70
28.00
23.79
21.62
21.33
22.12
22.84
22.45
20.28
16.36
11.22
5.72
0.58
-3.90
-8.02
-12.47
-18.07
-25.41
-34.56
-44.89
-55.13
-63.48
-67.92
-66.79
-59.29
-45.88
-28.28
-8.99
9.42
24.99
36.75
44.61
48.95
50.19
48.66
44.74
39.07
32.71
26.94
22.87
21.05
21.24
22.50
23.57
23.43
21.54
18.04
13.53
8.78
4.36
0.39
-3.40
-7.54
-12.67
-19.24
-27.48
-37.22
-47.80
-57.95
-65.84
-69.40
-66.93
-57.70
-42.38
-23.03
-2.45
16.59
32.10
43.19
49.87
52.65
52.13
48.87
43.51
36.96
30.43
25.12
21.90
20.96
21.78
23.33
24.50
24.41
22.66
19.27
14.53
8.91
2.86
-3.29
-9.30
-15.10
-20.81
-26.67
-33.03
-40.31
-48.80
-58.47
-68.63
-77.81
-83.89
-84.60
-78.32
-64.76
-45.27
-22.50
0.35
20.54
36.39
47.41
54.01
56.96
57.00
54.75
50.85
46.05
41.32
37.55
35.42
35.05
36.08
37.75
39.22
39.76
38.92
36.53
32.61
27.27
20.69
13.18
5.11
-2.98
-10.60
-17.40
-23.39
-29.00
-34.99
-42.20
-51.18
-61.73
-72.71
-82.04
-87.20
-85.94
-77.07
-61.07
-39.98
-16.94
4.88
23.06
36.46
45.14
49.80
51.34
50.49
47.81
43.92
39.57
35.64
32.86
31.64
31.87
33.10
34.64
35.86
36.28
35.56
33.49
29.98
25.04
18.88
11.90
4.63
-2.36
-8.67
-14.16
-19.12
-24.13
-30.00
-37.42
-46.67
-57.24
-67.70
-75.85
-79.25
-75.99
-65.40
-48.43
-27.45
-5.50
14.55
30.78
42.46
49.81
53.52
54.38
52.98
49.90
45.80
41.52
37.94
35.74
35.18
36.03
37.69
39.39
40.40
40.19
38.50
35.29
30.76
25.25
19.19
12.97
6.93
1.16
-4.45
-10.26
-16.72
-24.37
-33.54
-44.15
-55.40
-65.69
-72.77
-74.38
-68.94
-56.28
-37.88
-16.47
4.76
23.08
36.91
45.85
50.40
51.44
49.80
46.13
41.07
35.36
29.96
25.80
23.56
23.39
24.80
26.82
28.34
28.51
26.96
23.80
19.46
14.43
9.08
3.57
-2.06
-7.81
-13.74
-20.03
-27.06
-35.28
-44.99
-55.88
-66.81
-75.77
-80.35
-78.55
-69.47
-53.76
-33.51
-11.65
8.92
26.04
38.56
46.34
49.86
49.92
47.36
43.03
37.73
32.29
27.47
23.81
21.60
20.77
20.94
21.48
21.62
20.66
17.96
13.18
6.27
-2.47
-12.37
-22.63
-32.44
-41.33
-49.38
-57.32
-66.38
-77.86
-92.38
-109.31
-126.52
-140.76
-148.68
-148.09
-138.93
-123.41
-105.26
-88.36
-75.42
-67.28
-63.07
-60.99
-59.29
-56.91
-53.49
-49.07
-43.66
-36.98
-28.35
-16.77
-0.86
20.98
50.08
86.64
128.66
171.62
209.36
236.15
248.85
248.22
238.33
224.17
209.04
192.79
172.09
142.34
100.26
45.72
-17.84
-84.27
-146.46
-197.69
-232.67
-247.94
-241.83
-214.31
-166.86
-102.25
-24.45
61.79
151.46
239.70
322.07
394.65
454.00
497.44
523.39
531.95
525.14
506.53
480.29
450.07
418.36
386.45
354.93
324.30
295.20
268.19
243.43
220.43
198.41
176.81
155.62
135.60
118.03
104.20
94.98
90.51
90.16
92.81
97.13
101.90
106.26
109.68
111.90
112.78
112.12
109.52
104.43
96.19
84.29
68.60
49.54
28.21
6.03
-15.56
-35.47
-53.13
-68.38
-81.24
-91.74
-99.77
-105.03
-107.11
-105.55
-100.23
-91.70
-81.58
-72.45
-67.32
-68.51
-76.60
-90.17
-106.17
-121.68
-135.28
-148.15
-163.77
-186.66
-220.78
-267.91
-327.29
-395.47
-466.98
-534.92
-591.84
-631.30
-650.25
-651.14
-642.21
-635.01
-639.45
-658.78
-687.38
-712.70
-720.86
-702.79
-657.57
-591.46
-513.74
-431.96
-349.70
-267.50
-185.70
-106.76
-35.06
25.13
72.31
108.70
138.81
166.62
192.80
214.03
224.64
219.96
199.60
168.54
135.69
110.43
98.68
100.80
112.00
124.95
132.98
132.47
123.21
107.37
87.77
66.64
45.34
24.86
6.47
-8.13
-17.37
-20.60
-18.60
-13.59
-8.43
-5.73
-7.10
-12.83
-22.19
-33.91
-46.44
-58.22
-67.48
-72.29
-70.74
-61.65
-44.96
-22.24
3.74
29.58
52.24
69.65
80.91
86.16
86.10
81.85
74.69
66.10
57.56
50.24
44.76
40.97
38.14
35.30
31.73
27.19
21.98
16.57
11.35
6.29
0.86
-5.83
-14.69
-26.30
-40.39
-55.57
-69.33
-78.53
-80.21
-72.62
-55.90
-32.10
-4.67
22.59
46.52
65.06
77.36
83.39
83.66
79.02
70.74
60.54
50.37
41.97
36.39
33.61
32.62
31.91
30.16
26.76
21.99
16.73
11.90
7.94
4.50
0.61
-4.98
-13.36
-24.95
-39.13
-54.07
-66.81
-73.86
-72.12
-59.90
-37.60
-7.75
25.85
59.23
89.42
114.77
134.77
149.35
158.43
161.94
160.33
155.07
148.69
144.24
144.19
149.41
158.75
169.48
178.49
183.88
185.92
187.06
190.60
198.89
211.36
223.87
229.62
221.21
193.26
143.70
74.11
-10.80
-104.18
-197.93
-283.73
-354.34
-404.96
-433.59
-441.42
-431.46
-406.71
-368.78
-318.43
-257.13
-189.54
-124.14
-70.43
-36.87
-28.05
-43.20
-76.34
-118.58
-159.45
-189.84
-203.86
-197.58
-170.72
-126.41
-70.03
-7.15
57.49
121.96
184.55
241.84
290.21
324.75
341.20
338.58
320.80
294.83
269.63
250.98
226.59
187.59
132.34
68.51
8.26
-33.09
-55.93
-64.10
-62.49
-54.62
-40.99
-18.74
15.84
65.20
128.89
201.54
275.29
339.24
382.99
402.03
398.07
377.54
348.50
317.41
286.57
255.91
222.33
183.34
139.95
95.45
52.84
13.10
-24.71
-62.20
-99.05
-134.91
-167.95
-194.97
-213.54
-223.86
-228.97
-233.19
-240.38
-252.19
-270.49
-295.11
-323.34
-351.28
-375.65
-394.66
-407.72
-414.81
-401.99
-363.60
-305.40
-241.57
-185.37
-143.10
-114.98
-98.14
-89.02
-84.44
-84.46
-87.45
-90.03
-88.22
-79.60
-64.82
-46.86
-29.12
-13.21
0.50
11.79
23.49
38.94
59.64
84.40
110.53
135.88
160.02
183.17
206.89
233.69
265.77
304.02
347.55
393.80
438.95
478.46
507.39
522.08
521.42
506.88
481.89
450.92
418.43
388.09
362.09
340.58
322.10
304.42
285.28
263.24
238.13
210.94
183.16
155.96
129.62
103.36
75.86
45.56
11.28
-27.12
-68.03
-107.53
-139.65
-157.77
-157.12
-137.32
-103.56
-65.54
-34.23
-17.89
-19.38
-36.11
-62.28
-92.11
-122.05
-151.03
-179.14
-206.04
-230.36
-250.39
-265.20
-275.37
-282.63
-288.82
-294.73
-299.76
-302.17
-299.92
-291.43
-276.00
-253.85
-225.98
-194.12
-160.69
-128.65
-100.98
-79.84
-65.74
-57.02
-50.27
-41.50
-27.59
-7.57
17.02
42.69
65.06
79.85
83.63
74.21
51.13
16.41
-24.89
-64.92
-94.59
-106.23
-96.18
-66.36
-23.74
21.90
60.96
86.64
96.20
90.80
74.48
52.79
31.55
16.01
10.12
15.99
33.38
59.55
89.53
117.09
136.06
141.85
132.55
109.40
76.27
38.54
1.71
-29.76
-53.12
-67.28
-72.58
-70.15
-61.82
-49.80
-36.66
-25.16
-17.77
-16.14
-20.42
-28.97
-38.57
-45.23
-45.53
-37.83
-22.98
-4.12
14.35
28.34
35.42
35.56
30.86
24.61
19.93
18.58
20.45
23.76
25.87
24.35
17.87
6.63
-7.89
-23.44
-37.69
-48.76
-55.52
-57.71
-55.92
-51.57
-46.63
-42.91
-41.26
-40.83
-38.98
-32.15
-17.32
6.41
37.05
70.12
100.15
122.39
134.20
135.40
127.78
114.27
98.14
82.36
69.23
59.90
54.01
49.68
44.12
34.70
20.12
1.11
-19.85
-39.45
-54.73
-64.21
-68.17
-68.40
-67.60
-68.33
-71.99
-78.32
-85.09
-88.86
-86.20
-75.18
-56.44
-33.12
-9.88
8.76
19.82
22.47
17.64
7.08
-7.48
-24.79
-43.83
-63.52
-82.42
-98.92
-111.58
-119.53
-122.49
-120.61
-114.29
-104.16
-91.38
-77.92
-66.69
-61.07
-63.77
-75.62
-94.62
-116.03
-133.55
-141.19
-135.23
-115.41
-84.79
-48.65
-12.74
18.21
41.33
55.62
61.54
60.35
53.79
43.83
32.55
21.92
13.54
8.37
6.56
7.49
10.03
12.86
14.87
15.41
14.30
11.62
7.33
1.15
-7.37
-18.16
-30.13
-40.86
-47.03
-45.60
-35.02
-16.18
7.80
32.47
53.67
68.67
76.70
78.62
76.02
70.45
62.95
54.14
44.40
34.26
24.33
15.31
7.70
1.71
-2.77
-6.12
-8.84
-11.44
-14.48
-18.55
-24.30
-32.19
-42.06
-52.78
-62.06
-66.90
-64.54
-53.54
-34.57
-10.40
14.94
37.45
54.27
64.22
67.62
65.62
59.54
50.49
39.40
27.16
14.84
3.62
-5.41
-11.57
-14.74
-15.40
-14.48
-12.96
-11.76
-11.58
-13.02
-16.63
-22.82
-31.51
-41.66
-51.09
-56.75
-55.77
-46.55
-29.61
-7.59
15.57
35.93
50.79
59.09
61.25
58.45
51.94
42.81
31.92
20.25
8.90
-0.97
-8.45
-13.05
-14.84
-14.38
-12.56
-10.39
-8.79
-8.63
-10.61
-15.29
-22.83
-32.66
-43.22
-51.93
-55.73
-52.07
-40.03
-20.84
2.29
25.17
43.99
56.36
61.69
60.77
55.02
45.95
34.81
22.70
10.65
-0.28
-9.23
-15.63
-19.35
-20.67
-20.16
-18.50
-16.44
-14.74
-14.22
-15.76
-20.13
-27.57
-37.37
-47.59
-55.25
-57.17
-51.03
-36.45
-15.33
8.61
31.09
48.55
59.13
62.72
60.53
54.29
45.55
35.51
24.99
14.69
5.32
-2.42
-7.98
-11.16
-12.14
-11.56
-10.27
-9.16
-8.97
-10.28
-13.63
-19.45
-27.86
-38.20
-48.72
-56.63
-58.79
-52.83
-38.25
-16.82
7.80
31.27
49.86
61.43
65.58
63.31
56.24
46.09
34.37
22.38
11.22
1.82
-5.15
-9.44
-11.18
-10.99
-9.66
-8.06
-6.88
-6.56
-7.39
-9.67
-13.87
-20.52
-29.72
-40.75
-51.53
-59.05
-60.10
-52.61
-36.54
-14.23
10.37
32.94
50.10
60.12
62.96
59.68
51.85
41.06
28.73
16.20
4.69
-4.79
-11.67
-15.85
-17.69
-17.85
-17.01
-15.74
-14.41
-13.25
-12.48
-12.57
-14.21
-18.20
-25.07
-34.38
-44.47
-52.46
-55.13
-50.02
-36.52
-16.32
7.05
29.42
47.22
58.43
62.72
61.02
54.78
45.49
34.42
22.69
11.40
1.60
-5.86
-10.54
-12.52
-12.38
-10.92
-8.99
-7.25
-6.20
-6.18
-7.62
-11.06
-17.12
-26.12
-37.49
-49.47
-59.15
-63.24
-59.19
-46.24
-25.92
-1.66
22.31
42.24
55.82
62.39
62.58
57.68
49.07
38.13
26.29
15.02
5.72
-0.66
-3.87
-4.53
-3.72
-2.66
-2.17
-2.50
-3.51
-4.88
-6.58
-9.05
-13.08
-19.57
-28.92
-40.53
-52.52
-61.92
-65.48
-60.75
-47.05
-25.93
-0.72
24.41
45.73
60.81
68.78
70.04
65.71
57.24
46.16
34.06
22.50
12.80
5.74
1.43
-0.65
-1.38
-1.62
-1.94
-2.55
-3.41
-4.47
-5.86
-8.00
-11.67
-17.75
-26.89
-38.95
-52.48
-64.65
-71.90
-70.97
-60.28
-40.65
-15.15
11.80
35.97
54.35
65.60
69.81
67.80
60.78
50.16
37.64
25.20
14.70
7.44
3.65
2.55
2.69
2.66
1.65
-0.46
-3.14
-5.84
-8.25
-10.61
-13.56
-18.09
-25.05
-34.88
-47.11
-60.03
-70.83
-76.11
-73.05
-60.42
-39.27
-12.72
14.97
39.72
58.62
70.30
74.76
72.79
65.55
54.49
41.30
28.01
16.60
8.53
4.28
3.22
3.88
4.60
4.17
2.20
-0.86
-4.16
-6.99
-9.20
-11.41
-14.71
-20.34
-29.06
-40.77
-54.07
-66.44
-74.69
-75.75
-67.77
-50.80
-26.94
0.17
26.48
48.52
64.20
72.81
74.72
70.82
62.32
50.70
37.77
25.58
16.08
10.49
8.85
10.00
11.98
12.91
11.63
8.05
2.98
-2.40
-7.20
-11.21
-14.99
-19.67
-26.49
-36.33
-49.15
-63.65
-77.18
-86.27
-87.54
-78.85
-60.26
-34.17
-4.62
23.94
47.94
65.42
75.94
79.98
78.36
71.82
61.31
48.24
34.70
23.02
15.15
11.84
12.40
14.92
17.06
17.00
14.02
8.66
2.17
-4.12
-9.41
-13.77
-17.89
-22.91
-29.94
-39.80
-52.66
-67.64
-82.66
-94.46
-99.35
-94.33
-78.30
-52.72
-21.35
10.99
39.87
62.48
77.89
86.49
89.13
86.48
79.01
67.43
53.20
38.58
26.12
17.81
14.36
14.98
17.68
20.09
20.36
17.71
12.49
5.76
-1.20
-7.56
-13.09
-18.22
-23.75
-30.68
-39.83
-51.61
-65.62
-80.31
-92.94
-100.01
-98.26
-85.82
-63.14
-33.02
0.13
31.66
57.90
76.90
88.22
92.36
90.19
82.65
70.99
56.98
42.90
31.14
23.50
20.53
21.38
24.07
26.35
26.42
23.57
18.27
11.73
5.32
-0.12
-4.63
-9.04
-14.57
-22.41
-33.25
-46.97
-62.54
-77.93
-90.21
-96.12
-92.79
-78.85
-55.13
-24.65
8.16
38.79
63.84
81.65
92.00
95.48
92.80
84.71
72.28
57.26
42.09
29.38
21.01
17.45
17.61
19.36
20.39
19.19
15.41
9.73
3.39
-2.59
-7.80
-12.56
-17.81
-24.74
-34.42
-47.43
-63.40
-80.67
-96.20
-106.12
-106.69
-95.63
-73.11
-41.98
-6.90
27.07
55.92
77.48
91.28
97.80
97.70
91.59
80.26
65.23
48.87
34.10
23.41
18.01
17.36
19.41
21.52
21.53
18.53
12.90
5.98
-0.83
-6.69
-11.64
-16.51
-22.58
-31.07
-42.84
-57.95
-75.29
-92.47
-105.97
-111.84
-106.91
-89.93
-62.28
-27.77
8.54
41.78
68.58
87.46
98.51
102.60
100.60
93.27
81.51
66.81
51.33
37.64
27.91
23.17
22.88
25.14
27.47
27.70
24.79
19.03
11.69
4.30
-2.13
-7.46
-12.50
-18.56
-27.03
-38.82
-54.02
-71.54
-89.02
-102.97
-109.50
-105.40
-89.24
-62.18
-27.79
8.87
42.71
70.01
88.98
99.58
102.76
99.67
91.30
78.70
63.35
47.33
33.11
22.84
17.62
17.04
19.29
21.91
22.67
20.38
15.11
8.01
0.56
-6.04
-11.44
-16.13
-21.17
-27.81
-37.02
-49.16
-63.67
-78.85
-91.97
-99.61
-98.50
-86.65
-64.16
-33.51
1.06
34.73
63.36
84.39
96.93
101.35
98.62
89.93
76.69
60.71
44.31
30.07
20.12
15.47
15.60
18.56
21.76
22.97
21.10
16.41
10.19
3.93
-1.40
-5.80
-10.15
-15.87
-24.35
-36.47
-52.18
-70.05
-87.29
-100.12
-104.61
-97.92
-79.46
-51.22
-17.37
16.98
47.26
70.42
85.22
91.85
91.14
84.15
72.07
56.49
39.56
23.87
11.77
4.74
2.83
4.62
7.80
10.01
9.70
6.50
1.23
-4.78
-10.34
-14.89
-18.84
-23.26
-29.58
-39.05
-52.25
-68.55
-85.92
-101.02
-109.82
-108.73
-95.82
-71.63
-39.25
-3.37
31.06
60.16
81.79
95.41
101.39
100.43
93.34
81.23
65.85
49.61
35.17
24.63
18.84
17.10
17.53
17.84
16.33
12.50
7.04
1.30
-3.44
-6.75
-9.24
-12.37
-17.90
-27.26
-41.00
-58.36
-77.10
-93.66
-103.81
-103.78
-91.46
-67.35
-34.68
1.51
35.84
64.06
83.87
94.87
97.83
93.93
84.35
70.40
53.80
36.87
22.09
11.51
5.96
4.81
6.17
7.70
7.56
4.96
0.37
-5.01
-9.92
-13.71
-16.67
-19.83
-24.56
-32.06
-43.00
-57.16
-73.26
-88.79
-100.33
-104.13
-97.29
-78.83
-50.39
-15.98
19.19
50.20
73.74
88.57
95.03
94.24
87.33
75.34
59.50
41.63
24.25
9.97
0.70
-3.12
-2.70
-0.39
1.26
0.47
-3.24
-9.05
-15.54
-21.43
-26.22
-30.37
-35.08
-41.83
-51.79
-65.24
-81.22
-97.28
-109.86
-115.01
-109.69
-92.80
-65.86
-32.60
2.10
33.74
59.31
77.67
89.14
94.77
95.85
93.67
89.66
85.44
82.50
81.68
82.71
84.17
83.79
79.45
69.86
55.22
37.18
18.36
1.60
-10.94
-18.51
-22.12
-24.32
-28.50
-37.67
-53.06
-73.27
-93.99
-109.01
-112.01
-98.77
-68.73
-25.41
24.58
73.71
115.67
146.92
166.81
176.64
178.25
172.90
161.19
143.63
121.67
98.06
76.58
60.89
53.15
53.02
57.60
62.20
61.95
53.28
34.95
8.34
-23.00
-54.31
-80.95
-99.74
-110.04
-114.18
-116.70
-122.47
-134.42
-151.82
-170.11
-182.77
-184.05
-171.56
-147.10
-115.55
-82.53
-52.19
-26.47
-5.66
10.20
20.36
23.60
19.12
7.79
-7.56
-22.66
-33.45
-37.56
-35.11
-28.54
-21.44
-16.98
-16.73
-20.22
-25.55
-30.44
-33.41
-34.43
-34.83
-36.62
-41.71
-51.21
-65.00
-81.60
-98.35
-111.61
-117.46
-112.71
-95.87
-67.96
-32.43
5.73
41.41
70.69
91.49
103.42
107.01
103.21
93.06
78.02
60.22
42.45
27.51
17.43
12.73
12.26
13.76
14.80
13.70
10.03
4.52
-1.58
-7.18
-11.98
-16.59
-22.26
-30.49
-42.40
-58.19
-76.81
-95.81
-111.52
-119.87
-117.44
-102.65
-76.49
-42.41
-5.31
29.89
59.45
81.38
95.18
101.23
100.29
93.29
81.67
67.59
53.81
43.07
37.20
36.41
39.21
42.97
44.97
43.38
37.90
29.57
20.18
11.38
3.85
-2.82
-10.02
-19.46
-32.52
-49.59
-69.54
-89.70
-106.03
-114.14
-110.45
-93.54
-64.88
-28.57
9.78
44.74
72.47
91.27
101.16
103.07
98.06
87.24
72.13
55.02
38.97
27.13
21.58
22.64
28.65
36.66
43.62
47.48
47.73
45.26
41.56
37.93
34.87
31.91
27.88
21.32
11.00
-3.61
-22.01
-42.26
-61.02
-74.07
-77.37
-68.50
-47.69
-18.05
15.24
46.52
71.37
87.38
94.23
92.88
84.70
71.10
53.66
34.45
16.10
1.40
-7.62
-10.49
-8.52
-4.33
-0.86
-0.24
-3.13
-8.76
-15.52
-21.77
-26.64
-30.30
-33.91
-39.04
-47.22
-59.26
-74.82
-92.10
-107.92
-118.24
-119.21
-108.41
-85.80
-53.98
-17.57
18.21
48.91
71.81
86.13
92.35
91.59
85.00
73.78
59.40
43.86
29.52
18.61
12.49
11.19
13.34
16.71
19.02
18.73
15.48
9.93
3.29
-3.29
-9.18
-14.46
-19.72
-25.81
-33.58
-43.63
-56.11
-70.31
-84.40
-95.45
-99.95
-94.88
-78.90
-53.06
-20.79
13.15
44.04
68.43
84.65
92.56
92.92
86.79
75.44
60.42
43.85
28.25
16.05
8.94
7.20
9.66
14.06
17.88
19.25
17.49
13.17
7.66
2.34
-2.04
-5.61
-9.35
-14.55
-22.38
-33.46
-47.53
-63.25
-78.13
-88.81
-91.76
-84.38
-66.02
-38.51
-5.91
26.76
54.89
75.50
87.54
91.57
88.83
80.67
68.39
53.37
37.50
23.09
12.34
6.69
6.18
9.33
13.71
16.78
16.82
13.47
7.58
0.64
-5.95
-11.48
-16.12
-20.68
-26.28
-33.92
-44.25
-57.28
-72.23
-87.18
-99.20
-104.74
-100.68
-85.49
-60.13
-28.01
5.95
36.83
61.05
77.06
85.09
86.34
82.12
73.49
61.46
47.42
33.28
21.31
13.42
10.50
11.97
16.04
20.33
22.70
21.93
17.98
11.70
4.38
-2.84
-9.33
-15.10
-20.67
-26.81
-34.36
-44.05
-56.16
-70.20
-84.59
-96.64
-102.92
-100.33
-87.16
-63.98
-33.77
-1.04
29.46
54.12
71.18
80.57
83.32
80.72
73.88
63.72
51.36
38.34
26.52
17.70
13.00
12.39
14.64
17.75
19.66
18.98
15.35
9.46
2.56
-4.17
-10.11
-15.36
-20.53
-26.49
-33.99
-43.54
-55.21
-68.43
-81.73
-92.65
-98.03
-94.96
-81.76
-58.90
-29.16
3.12
33.28
57.64
74.27
82.95
84.55
80.35
71.60
59.55
45.66
31.70
19.58
10.96
6.67
6.49
9.18
12.91
15.87
16.86
15.57
12.47
8.52
4.47
0.62
-3.40
-8.34
-15.04
-24.11
-35.66
-49.19
-63.47
-76.45
-85.37
-87.31
-80.07
-63.08
-37.93
-8.17
21.78
47.85
67.38
79.45
84.32
82.88
76.06
64.83
50.55
35.16
21.08
10.56
5.00
4.36
7.18
11.16
13.99
14.18
11.40
6.37
0.41
-5.30
-10.17
-14.33
-18.52
-23.79
-31.13
-41.18
-53.85
-68.08
-81.68
-91.54
-94.35
-87.65
-70.84
-45.59
-15.50
14.98
41.90
62.64
76.23
82.82
83.12
77.94
68.16
55.07
40.51
26.75
15.99
9.69
8.02
9.88
13.21
15.84
16.18
13.69
8.90
2.95
-3.02
-8.36
-13.19
-18.24
-24.54
-33.04
-44.28
-58.05
-73.11
-87.15
-96.99
-99.34
-91.81
-73.93
-47.55
-16.45
14.77
41.96
62.48
75.39
81.00
80.19
73.90
63.12
49.11
33.71
19.23
7.90
1.20
-0.73
0.85
3.77
5.81
5.47
2.42
-2.58
-8.28
-13.57
-18.05
-22.17
-26.96
-33.62
-43.05
-55.54
-70.50
-86.34
-100.52
-109.94
-111.62
-103.68
-86.10
-60.93
-31.83
-3.04
21.76
40.24
51.48
55.69
53.58
46.13
34.57
20.56
6.24
-6.05
-14.43
-18.06
-17.53
-14.59
-11.51
-10.11
-11.17
-14.22
-17.97
-21.10
-22.92
-23.74
-24.70
-27.31
-32.87
-41.96
-54.07
-67.52
-79.62
-87.08
-86.78
-76.69
-56.56
-28.19
4.96
38.77
69.48
94.46
112.48
123.32
127.32
125.07
117.42
105.74
92.13
79.10
69.01
63.28
61.73
62.63
63.31
61.26
55.06
44.88
32.28
19.32
7.64
-2.22
-10.87
-19.72
-30.26
-43.43
-59.05
-75.62
-90.41
-99.90
-100.66
-90.46
-69.21
-39.17
-4.62
29.44
58.51
79.61
91.44
94.09
88.44
75.92
58.47
38.66
19.54
4.10
-5.61
-9.09
-7.59
-3.61
0.03
1.29
-0.58
-4.96
-10.46
-15.63
-19.75
-23.02
-26.51
-31.70
-39.94
-51.95
-67.27
-84.08
-99.24
-108.82
-109.13
-97.93
-75.31
-43.93
-8.41
26.08
55.19
76.34
88.79
93.15
90.55
82.16
69.24
53.39
36.81
22.08
11.49
6.29
6.09
9.03
12.48
14.09
12.69
8.48
2.71
-3.14
-8.18
-12.49
-16.98
-23.01
-31.73
-43.73
-58.73
-75.40
-91.30
-103.11
-107.26
-100.90
-83.09
-55.28
-21.29
13.91
45.45
69.96
85.85
93.15
92.70
85.66
73.37
57.55
40.52
24.97
13.36
7.06
5.92
8.28
11.65
13.67
13.00
9.55
4.26
-1.56
-7.01
-11.95
-17.09
-23.62
-32.84
-45.57
-61.68
-79.80
-97.15
-109.93
-114.14
-106.89
-87.53
-58.15
-23.11
12.30
43.40
67.25
82.85
90.61
91.43
86.21
75.89
61.78
45.97
31.14
19.87
13.77
12.83
15.46
19.09
21.26
20.44
16.49
10.38
3.59
-2.72
-8.14
-13.16
-18.91
-26.78
-37.96
-52.86
-70.74
-89.42
-105.37
-114.31
-112.51
-98.07
-71.82
-37.36
0.05
35.03
63.60
83.81
95.48
99.47
96.82
88.51
75.64
59.88
43.57
29.38
19.56
15.13
15.57
18.94
22.68
24.47
22.98
18.22
11.21
3.45
-3.86
-10.32
-16.41
-23.24
-32.18
-44.26
-59.74
-77.70
-95.87
-110.67
-118.01
-114.36
-98.04
-70.09
-34.22
4.19
39.69
68.22
87.83
98.56
101.49
97.99
89.23
76.37
60.95
45.10
31.34
21.83
17.72
18.58
22.59
27.13
29.80
29.10
24.86
17.99
9.95
1.98
-5.27
-11.96
-18.82
-26.82
-36.77
-49.16
-63.90
-80.15
-96.09
-108.85
-114.95
-111.20
-95.86
-69.64
-35.82
0.56
34.17
60.87
78.53
86.96
87.18
80.59
68.57
52.58
34.46
16.55
1.37
-9.11
-14.23
-14.92
-13.48
-12.73
-15.04
-21.62
-32.28
-45.76
-60.51
-75.25
-89.48
-103.42
-117.76
-133.32
-150.73
-170.20
-191.16
-212.08
-230.20
-241.99
-243.89
-233.59
-211.09
-179.02
-142.03
-105.44
-73.75
-49.72
-34.23
-26.72
-25.80
-29.51
-35.47
-40.92
-43.07
-39.83
-30.41
-15.67
2.22
20.44
36.53
49.00
57.55
62.86
66.12
68.52
70.92
73.59
76.21
77.95
77.65
74.13
66.58
55.19
41.58
28.97
21.63
23.67
37.58
63.18
97.45
135.34
171.21
200.15
218.88
226.05
222.27
210.06
193.52
177.74
167.62
166.47
174.83
190.19
207.73
221.75
227.23
221.03
202.41
172.92
135.92
95.85
57.27
23.98
-1.73
-19.46
-30.68
-38.11
-44.97
-53.90
-66.09
-80.59
-94.36
-103.11
-102.79
-91.17
-68.93
-39.53
-8.03
20.60
42.85
57.33
64.27
64.69
59.68
50.21
37.43
22.99
9.03
-2.47
-10.36
-14.91
-17.69
-20.84
-26.11
-34.17
-44.41
-55.38
-65.56
-74.02
-80.76
-86.65
-93.09
-101.41
-112.25
-124.94
-137.13
-145.04
-144.26
-131.30
-105.06
-67.63
-23.91
19.88
58.13
87.40
106.88
117.76
122.02
121.47
117.40
110.95
103.52
96.89
92.70
91.72
93.32
95.55
95.92
92.45
84.54
73.08
59.98
47.26
36.19
26.76
17.73
7.07
-7.34
-26.88
-51.38
-78.70
-104.78
-124.46
-132.93
-127.27
-107.58
-77.08
-41.15
-5.74
24.25
45.88
58.24
61.81
57.85
47.96
34.12
18.75
4.59
-5.85
-11.05
-11.03
-7.40
-2.79
0.12
-0.32
-4.22
-10.23
-16.20
-20.14
-20.87
-18.49
-14.16
-9.77
-7.34
-8.45
-13.70
-22.34
-32.05
-39.40
-40.63
-32.99
-15.67
9.60
39.19
68.69
94.32
113.79
126.46
132.72
133.47
129.72
122.74
114.45
107.40
104.44
107.81
118.47
135.79
157.82
181.99
205.61
226.13
241.08
248.24
245.98
233.74
212.41
184.23
152.15
118.96
86.55
55.67
25.94
-3.62
-33.91
-65.22
-96.91
-127.54
-155.33
-178.81
-197.16
-210.22
-217.90
-219.74
-215.00
-203.32
-185.65
-164.70
-144.35
-128.09
-117.54
-111.61
-107.24
-101.02
-91.04
-77.87
-64.06
-52.78
-46.13
-44.16
-45.02
-46.20
-45.85
-43.88
-41.97
-42.76
-48.46
-59.51
-73.94
-87.72
-95.95
-94.55
-81.62
-58.11
-27.35
6.19
38.29
66.05
87.97
103.53
112.47
114.52
109.64
98.60
83.35
66.63
51.08
38.17
27.64
17.98
7.38
-5.09
-19.01
-33.00
-45.58
-56.13
-65.06
-73.48
-82.38
-92.06
-102.11
-111.69
-119.94
-126.01
-128.85
-126.96
-118.55
-102.24
-77.86
-46.92
-12.47
21.82
52.55
77.39
95.12
105.38
108.34
104.52
94.99
81.58
66.69
52.86
42.05
35.07
31.45
29.76
28.30
25.75
21.53
15.89
9.49
3.03
-3.26
-9.72
-17.23
-26.98
-39.95
-56.47
-75.67
-95.25
-111.66
-120.90
-119.75
-106.94
-83.74
-53.71
-21.57
8.19
32.36
49.28
58.54
60.44
55.66
45.39
31.51
16.59
3.33
-6.20
-11.29
-12.73
-12.35
-12.15
-13.37
-16.23
-20.09
-24.15
-28.10
-32.51
-38.70
-48.25
-62.28
-81.02
-103.41
-127.24
-149.33
-166.15
-174.59
-172.73
-160.55
-140.00
-114.52
-88.10
-64.29
-45.48
-32.83
-26.58
-26.37
-31.49
-40.78
-52.56
-64.59
-74.51
-80.47
-81.71
-78.91
-74.03
-69.66
-68.01
-70.10
-75.27
-81.53
-86.43
-88.19
-86.55
-82.87
-79.61
-79.12
-82.61
-89.47
-97.17
-101.96
-99.83
-87.75
-64.69
-31.95
7.16
48.36
87.69
122.48
151.56
174.94
193.03
206.24
214.87
219.51
221.22
221.49
221.64
222.27
222.89
222.25
218.90
211.92
201.37
188.15
173.55
158.78
144.40
130.22
115.34
98.55
78.75
55.46
29.13
1.31
-25.42
-47.89
-63.07
-68.78
-64.57
-52.03
-34.62
-16.85
-3.12
3.46
1.66
-8.03
-23.86
-43.62
-64.97
-85.48
-102.71
-114.38
-118.96
-116.30
-107.85
-96.31
-84.68
-75.16
-68.56
-64.32
-61.21
-58.19
-54.96
-52.06
-50.57
-51.67
-56.26
-64.64
-76.28
-89.62
-102.01
-110.15
-110.92
-102.41
-84.72
-60.09
-32.41
-6.09
14.97
28.14
32.25
27.45
14.93
-3.38
-24.89
-46.74
-66.13
-81.00
-90.50
-95.13
-96.55
-96.72
-97.20
-98.54
-100.23
-101.11
-100.14
-96.99
-92.33
-87.60
-84.53
-84.51
-88.11
-94.74
-102.65
-109.22
-111.39
-106.43
-92.62
-69.86
-39.77
-5.43
29.37
61.01
86.77
105.14
115.86
119.56
117.55
111.56
103.64
95.98
90.50
88.39
89.79
93.71
98.47
102.40
104.51
104.84
104.19
103.57
103.52
103.80
103.35
100.75
94.69
84.53
70.65
54.77
39.80
29.46
27.28
35.51
54.13
80.58
110.30
138.16
159.94
173.47
178.89
177.95
172.93
165.61
156.90
147.23
137.07
127.43
119.67
114.88
113.05
112.68
111.24
106.24
96.51
82.80
67.42
53.10
41.55
32.72
24.97
15.99
4.01
-11.31
-28.81
-46.13
-60.61
-69.94
-72.81
-69.17
-60.13
-47.67
-34.09
-21.37
-10.74
-2.60
3.30
7.41
10.09
11.56
11.92
11.46
10.76
10.58
11.69
14.49
18.79
23.75
28.10
30.61
30.43
27.48
22.39
16.18
9.83
3.91
-1.58
-7.15
-13.51
-21.19
-30.16
-39.53
-47.56
-51.92
-50.23
-40.80
-23.20
1.45
30.77
61.66
91.03
116.27
135.50
147.63
152.24
149.56
140.45
126.44
109.52
91.94
75.70
62.24
52.05
44.72
39.10
33.84
27.81
20.55
12.30
3.76
-4.36
-11.80
-19.09
-27.47
-38.49
-53.33
-72.11
-93.38
-114.29
-131.20
-140.96
-142.00
-135.00
-122.56
-108.30
-95.59
-86.75
-82.81
-83.99
-90.12
-100.94
-115.81
-133.32
-151.18
-166.59
-177.10
-181.43
-179.94
-174.33
-166.96
-159.95
-154.56
-151.04
-148.85
-147.18
-145.34
-143.13
-140.88
-139.26
-139.03
-140.67
-144.02
-148.08
-150.90
-149.99
-142.80
-127.60
-104.11
-73.81
-39.74
-6.02
22.97
43.25
52.10
48.59
33.88
11.13
-15.15
-39.99
-58.94
-68.82
-68.02
-56.53
-35.78
-8.49
21.54
50.00
72.74
86.70
90.63
85.21
72.60
55.59
36.70
17.66
-0.69
-18.07
-34.15
-48.05
-58.11
-62.08
-57.86
-44.37
-22.22
6.27
37.62
68.29
95.69
118.57
136.86
150.97
161.17
167.39
169.52
167.91
163.71
158.59
154.12
150.98
148.66
145.79
140.87
133.16
123.04
111.90
101.41
92.78
86.32
81.41
76.82
71.23
63.65
53.64
41.55
28.59
16.78
8.53
6.06
10.62
21.94
38.20
56.53
73.92
88.09
97.84
103.04
104.17
101.91
96.90
89.83
81.59
73.32
66.25
61.32
58.83
58.28
58.50
58.14
56.21
52.49
47.61
42.64
38.50
35.38
32.47
28.20
20.77
8.81
-8.15
-29.53
-53.71
-78.22
-100.00
-115.89
-123.23
-120.67
-108.69
-89.65
-67.15
-45.05
-26.35
-12.67
-4.29
-0.65
-0.91
-4.36
-10.37
-18.24
-27.10
-35.96
-43.96
-50.66
-56.07
-60.60
-64.76
-68.83
-72.78
-76.28
-78.99
-80.81
-82.12
-83.70
-86.48
-91.20
-98.14
-107.00
-117.04
-127.16
-135.98
-141.93
-143.41
-139.11
-128.51
-112.21
-91.98
-70.35
-49.91
-32.61
-19.48
-10.68
-5.87
-4.53
-6.08
-9.72
-14.31
-18.41
-20.55
-19.75
-15.88
-9.75
-2.84
3.24
7.32
9.02
8.74
7.36
5.82
4.76
4.25
3.94
3.11
1.01
-3.02
-9.17
-16.94
-24.97
-31.11
-32.93
-28.45
-16.93
0.84
22.62
45.54
66.93
84.97
98.86
108.53
114.16
115.92
113.98
108.82
101.44
93.31
86.05
80.89
78.26
77.65
77.83
77.51
75.81
72.67
68.76
65.09
62.44
60.93
59.90
58.18
54.55
48.20
39.04
27.67
15.33
3.69
-5.34
-9.87
-8.43
-0.51
13.17
30.48
48.51
64.25
75.48
81.24
81.73
77.85
70.73
61.44
51.09
41.00
32.66
27.39
25.85
27.52
30.78
33.29
32.96
28.63
20.57
10.25
-0.39
-9.73
-17.15
-23.06
-28.59
-34.96
-42.95
-52.65
-63.46
-74.19
-83.15
-88.42
-88.05
-80.67
-66.06
-45.57
-21.90
1.60
22.00
37.55
47.92
53.88
56.51
56.77
55.29
52.66
49.67
47.42
46.95
48.74
52.39
56.58
59.66
60.38
58.37
54.25
49.24
44.47
40.37
36.49
31.70
24.64
14.21
-0.13
-18.13
-38.72
-59.90
-79.01
-93.00
-99.34
-96.89
-86.41
-70.57
-52.97
-36.96
-24.62
-16.50
-11.99
-10.14
-10.23
-11.90
-14.78
-18.19
-21.14
-22.67
-22.39
-20.79
-19.05
-18.47
-19.87
-23.22
-27.68
-32.08
-35.39
-37.12
-37.53
-37.44
-37.98
-40.23
-44.82
-51.60
-59.43
-66.17
-69.12
-65.69
-54.28
-34.94
-9.49
18.91
46.67
70.69
88.99
100.81
106.32
106.27
101.63
93.66
83.94
74.31
66.59
62.06
61.04
62.71
65.40
67.17
66.50
62.77
56.36
48.38
40.14
32.63
26.24
20.74
15.46
9.59
2.54
-5.84
-15.05
-23.87
-30.52
-33.05
-29.90
-20.40
-5.12
14.25
35.27
55.34
72.30
84.83
92.62
96.51
98.28
100.21
104.35
111.57
120.98
130.09
135.63
134.81
126.40
111.06
90.71
67.67
43.68
19.41
-5.39
-31.79
-61.57
-97.28
-141.75
-196.67
-260.72
-328.35
-390.17
-435.44
-455.63
-447.45
-413.84
-362.66
-303.65
-245.29
-193.02
-148.99
-113.11
-84.34
-61.42
-43.16
-28.35
-15.76
-4.31
6.66
17.37
27.80
37.65
46.86
55.77
65.23
76.41
90.27
106.99
125.72
144.86
162.57
177.56
189.18
197.09
200.62
198.23
187.79
167.32
135.98
94.75
46.58
-4.13
-52.16
-92.33
-120.38
-133.84
-132.77
-120.00
-100.40
-79.54
-61.96
-49.94
-43.34
-40.36
-38.80
-37.17
-34.94
-32.23
-29.26
-25.92
-21.98
-17.36
-12.59
-8.72
-6.96
-8.11
-12.16
-18.27
-25.14
-31.65
-37.30
-42.39
-47.63
-53.47
-59.55
-64.54
-66.47
-63.49
-54.62
-40.31
-22.29
-3.12
14.63
29.04
39.21
45.15
47.50
47.13
44.94
41.80
38.52
35.88
34.51
34.71
36.33
38.73
40.99
42.28
42.17
40.84
38.88
37.02
35.74
34.98
34.12
32.20
28.32
22.08
13.95
5.36
-1.47
-4.19
-1.02
8.50
23.29
40.91
58.41
73.12
83.40
88.76
89.66
87.02
81.83
75.00
67.50
60.37
54.77
51.73
51.74
54.37
58.24
61.14
60.74
55.20
43.77
26.88
5.83
-17.71
-42.19
-66.28
-88.75
-108.27
-123.41
-132.95
-136.36
-134.02
-127.18
-117.50
-106.50
-95.34
-84.86
-75.76
-68.75
-64.39
-62.87
-63.74
-66.07
-68.75
-70.88
-71.99
-72.04
-71.32
-70.17
-68.99
-68.16
-68.04
-68.91
-70.79
-73.40
-76.16
-78.29
-79.02
-77.87
-74.77
-70.24
-65.31
-61.26
-59.26
-59.76
-62.17
-64.77
-65.18
-61.12
-51.23
-35.68
-16.09
5.00
24.98
41.98
55.20
64.72
71.03
74.61
75.69
74.49
71.49
67.53
63.76
61.13
60.05
60.16
60.55
60.22
58.50
55.37
51.33
47.08
43.14
39.54
35.87
31.37
25.28
17.13
6.98
-4.39
-15.50
-24.42
-29.17
-28.37
-21.67
-9.91
5.09
21.09
36.03
48.48
57.65
63.32
65.54
64.57
60.89
55.32
48.99
43.14
38.79
36.40
35.68
35.81
35.73
34.59
32.06
28.29
23.80
19.15
14.69
10.49
6.29
1.67
-3.88
-10.78
-19.14
-28.56
-37.93
-45.59
-49.62
-48.55
-41.87
-30.35
-15.87
-0.83
12.62
23.11
30.25
34.37
36.06
35.85
34.08
31.06
27.27
23.49
20.59
19.25
19.64
21.34
23.52
25.35
26.23
26.06
25.07
23.59
21.91
20.09
18.10
15.83
13.18
9.96
5.96
0.96
-5.04
-11.58
-17.58
-21.43
-21.50
-16.65
-6.82
6.75
21.85
35.91
46.81
53.38
55.49
53.81
49.24
42.63
34.66
25.93
17.16
9.21
2.89
-1.30
-3.41
-4.03
-4.01
-4.23
-5.27
-7.34
-10.47
-14.62
-19.83
-26.21
-33.73
-42.19
-51.15
-60.09
-68.64
-76.53
-83.45
-88.87
-91.84
-91.23
-86.20
-76.69
-63.58
-48.58
-33.54
-19.90
-8.30
1.23
8.87
14.56
17.91
18.50
16.44
12.67
8.91
7.02
8.23
12.58
18.91
25.37
30.18
32.21
31.16
27.38
21.55
14.50
7.11
0.21
-5.62
-10.32
-14.59
-19.84
-27.62
-38.86
-53.19
-68.73
-82.63
-92.07
-95.30
-92.28
-84.54
-74.46
-64.22
-55.11
-47.40
-40.81
-35.16
-30.77
-28.37
-28.48
-30.91
-34.47
-37.38
-38.02
-35.60
-30.51
-24.11
-18.06
-13.57
-10.93
-9.61
-8.66
-7.34
-5.54
-3.85
-3.31
-4.84
-8.98
-15.61
-24.05
-33.09
-41.25
-46.93
-48.71
-45.67
-37.67
-25.48
-10.60
5.12
19.94
32.54
42.15
48.42
51.26
50.72
47.08
40.98
33.44
25.77
19.30
14.93
12.91
12.77
13.60
14.40
14.47
13.54
11.76
9.45
6.95
4.39
1.63
-1.64
-5.88
-11.46
-18.49
-26.58
-34.67
-41.14
-44.17
-42.23
-34.59
-21.65
-4.81
13.91
32.37
48.78
61.90
71.00
75.84
76.50
73.47
67.62
60.23
52.75
46.52
42.43
40.72
41.02
42.56
44.50
46.26
47.56
48.43
49.02
49.38
49.44
48.89
47.31
44.29
39.52
33.01
25.20
17.05
9.97
5.54
5.08
9.24
17.78
29.56
42.98
56.41
68.66
79.16
87.75
94.46
99.19
101.68
101.72
99.34
95.04
89.59
83.71
77.72
71.31
63.74
54.29
42.76
29.69
16.31
4.06
-5.97
-13.41
-18.75
-23.18
-28.14
-34.99
-44.61
-57.16
-71.99
-87.71
-102.41
-114.10
-121.14
-122.69
-118.77
-110.17
-98.01
-83.41
-67.41
-50.95
-35.14
-21.21
-10.35
-3.23
0.33
1.39
1.50
2.10
3.96
6.99
10.58
14.03
17.12
20.14
23.65
28.06
33.25
38.57
43.06
45.80
46.19
44.00
39.38
32.84
25.29
18.02
12.53
10.10
11.28
15.59
21.70
27.93
32.95
36.07
37.23
36.51
33.77
28.62
20.78
10.55
-0.93
-11.94
-20.69
-25.97
-27.34
-25.04
-19.67
-12.01
-2.96
6.34
14.49
20.02
21.67
18.71
11.14
-0.25
-13.95
-27.73
-38.97
-45.05
-44.04
-35.36
-19.99
-0.32
20.65
40.12
56.15
67.91
75.30
78.68
78.53
75.43
70.16
63.81
57.57
52.45
48.92
46.72
45.01
42.72
39.00
33.46
26.30
17.97
8.93
-0.61
-10.85
-22.24
-35.27
-50.14
-66.46
-83.04
-97.95
-108.93
-113.99
-112.12
-103.67
-90.34
-74.70
-59.47
-46.87
-38.24
-33.99
-33.80
-36.89
-42.23
-48.71
-55.21
-60.72
-64.48
-66.13
-65.69
-63.60
-60.46
-56.86
-53.19
-49.57
-45.91
-42.17
-38.51
-35.46
-33.81
-34.41
-37.78
-43.80
-51.49
-59.13
-64.63
-66.15
-62.72
-54.61
-43.24
-30.62
-18.62
-8.37
-0.14
6.41
11.63
15.59
17.97
18.54
17.50
15.73
14.55
15.15
18.10
23.12
29.19
35.11
39.97
43.44
45.72
47.16
47.96
47.96
46.77
44.02
39.71
34.34
28.87
24.44
22.10
22.51
25.86
31.86
39.85
48.93
58.09
66.32
72.73
76.64
77.67
75.78
71.25
64.63
56.69
48.23
40.03
32.62
26.23
20.76
15.90
11.23
6.44
1.42
-3.81
-9.12
-14.48
-19.94
-25.74
-32.18
-39.47
-47.59
-56.07
-63.97
-69.94
-72.54
-70.72
-64.20
-53.69
-40.69
-27.12
-14.74
-4.75
2.38
6.71
8.58
8.45
6.85
4.40
1.89
0.11
-0.42
0.42
2.30
4.57
6.62
8.11
9.02
9.54
9.85
9.90
9.42
8.02
5.41
1.50
-3.52
-9.18
-14.76
-19.36
-21.98
-21.83
-18.45
-12.01
-3.19
6.90
17.07
26.27
33.75
39.08
42.05
42.67
41.23
38.25
34.47
30.68
27.52
25.25
23.78
22.69
21.51
19.84
17.47
14.41
10.76
6.69
2.32
-2.33
-7.31
-12.78
-18.89
-25.70
-32.92
-39.87
-45.51
-48.66
-48.42
-44.52
-37.50
-28.55
-19.20
-10.84
-4.43
-0.38
1.25
0.73
-1.58
-5.15
-9.30
-13.21
-16.06
-17.21
-16.43
-13.91
-10.12
-5.63
-0.87
3.93
8.72
13.41
17.79
21.48
24.03
25.02
24.14
21.24
16.36
9.82
2.35
-4.94
-10.74
-13.85
-13.59
-10.09
-4.21
2.75
9.44
14.80
18.23
19.55
18.82
16.35
12.66
8.52
4.86
2.55
2.17
3.76
6.81
10.49
13.94
16.67
18.69
20.43
22.49
25.28
28.80
32.57
35.81
37.66
37.47
35.04
30.75
25.45
20.36
16.71
15.40
16.67
20.06
24.42
28.35
30.43
29.74
25.90
19.17
10.23
0.01
-10.53
-20.55
-29.32
-36.32
-41.20
-43.84
-44.31
-43.00
-40.44
-37.22
-33.85
-30.59
-27.53
-24.71
-22.23
-20.37
-19.51
-19.98
-21.95
-25.37
-30.05
-35.64
-41.60
-47.11
-51.18
-52.79
-51.33
-46.92
-40.38
-32.98
-25.98
-20.13
-15.60
-12.14
-9.44
-7.40
-6.16
-5.87
-6.42
-7.29
-7.71
-6.96
-4.63
-0.83
3.88
8.71
12.95
16.16
18.30
19.58
20.36
20.92
21.33
21.44
20.96
19.52
16.81
12.75
7.55
1.76
-3.72
-7.87
-9.75
-8.81
-5.03
0.93
8.00
14.93
20.65
24.45
26.04
25.33
22.40
17.46
10.94
3.59
-3.52
-9.31
-12.97
-14.28
-13.67
-12.01
-10.21
-8.89
-8.20
-7.90
-7.63
-7.14
-6.37
-5.54
-5.01
-5.20
-6.46
-8.96
-12.60
-16.91
-21.06
-24.02
-24.73
-22.49
-17.13
-9.11
0.63
10.91
20.68
29.14
35.79
40.41
42.86
43.09
41.16
37.33
32.12
26.25
20.58
15.77
12.20
9.80
8.11
6.46
4.24
1.14
-2.77
-7.09
-11.33
-15.13
-18.45
-21.54
-24.85
-28.81
-33.71
-39.55
-45.99
-52.34
-57.65
-60.84
-61.00
-57.66
-51.02
-41.89
-31.48
-21.06
-11.63
-3.79
2.17
6.18
8.24
8.42
6.99
4.51
1.82
-0.12
-0.54
0.91
4.03
8.14
12.38
15.94
18.35
19.48
19.54
18.85
17.68
16.14
14.14
11.50
8.03
3.61
-1.62
-7.30
-12.80
-17.31
-19.94
-19.97
-17.02
-11.19
-3.10
6.25
15.74
24.38
31.46
36.63
39.80
41.05
40.52
38.49
35.36
31.73
28.31
25.72
24.30
24.03
24.51
25.21
25.65
25.53
24.74
23.33
21.34
18.81
15.74
12.15
8.08
3.54
-1.52
-7.19
-13.40
-19.81
-25.72
-30.15
-32.16
-31.14
-27.09
-20.59
-12.61
-4.23
3.66
10.39
15.61
19.11
20.86
21.13
20.50
19.83
20.11
22.08
25.87
30.88
35.92
39.63
40.94
39.48
35.58
30.07
23.89
17.71
11.89
6.45
1.18
-4.19
-9.93
-16.21
-22.98
-29.90
-36.22
-40.93
-43.07
-42.03
-37.80
-31.02
-22.75
-14.17
-6.28
0.24
5.01
7.93
9.05
8.63
7.07
4.97
2.95
1.54
1.03
1.46
2.63
4.22
5.85
7.13
7.68
7.23
5.67
3.07
-0.34
-4.27
-8.48
-12.87
-17.49
-22.38
-27.42
-32.12
-35.69
-37.09
-35.39
-30.13
-21.59
-10.80
0.65
11.11
19.31
24.68
27.38
28.21
28.44
29.51
32.72
38.76
47.37
57.15
65.89
71.20
71.41
66.19
56.60
44.62
32.38
21.39
12.24
4.82
-1.34
-6.64
-11.18
-14.79
-17.07
-17.55
-15.76
-11.32
-4.09
5.73
17.57
30.42
43.00
53.92
61.94
66.17
66.28
62.60
56.05
47.87
39.30
31.19
24.02
17.85
12.59
8.16
4.43
1.26
-1.55
-4.17
-6.55
-8.39
-9.28
-9.01
-7.78
-6.34
-5.72
-6.94
-10.69
-17.19
-26.13
-36.71
-47.73
-57.64
-64.93
-68.33
-67.29
-61.98
-53.27
-42.40
-30.71
-19.52
-10.04
-3.29
0.10
0.08
-2.56
-6.40
-9.69
-10.98
-9.57
-5.81
-0.90
3.47
5.74
4.99
1.20
-4.70
-11.17
-16.48
-19.24
-18.88
-15.82
-11.42
-7.56
-5.98
-7.59
-12.06
-17.89
-23.00
-25.68
-25.36
-22.76
-19.52
-17.25
-16.82
-17.94
-19.42
-19.94
-18.69
-15.78
-12.23
-9.45
-8.71
-10.79
-15.75
-23.08
-31.81
-40.77
-48.66
-54.18
-56.14
-53.75
-46.91
-36.46
-24.24
-12.65
-4.16
-0.60
-2.64
-9.65
-19.88
-30.95
-40.36
-46.08
-46.76
-41.92
-31.90
-17.70
-0.90
16.70
33.27
47.19
57.23
62.65
63.28
59.50
52.22
42.69
32.37
22.61
14.45
8.41
4.53
2.44
1.53
1.10
0.36
-1.43
-4.97
-10.71
-18.61
-28.03
-37.87
-46.78
-53.62
-57.82
-59.50
-59.30
-57.95
-55.91
-53.09
-49.08
-43.37
-35.76
-26.59
-16.61
-6.67
2.53
10.75
18.08
24.81
31.18
37.24
42.89
47.99
52.54
56.74
60.93
65.43
70.43
75.86
81.38
86.48
90.64
93.44
94.60
94.10
92.09
88.84
84.66
79.78
74.28
68.02
60.74
52.20
42.51
32.32
22.88
15.87
12.89
14.89
21.73
32.10
43.84
54.63
62.66
67.00
67.61
64.94
59.52
51.76
41.93
30.43
18.02
5.79
-4.95
-13.06
-17.96
-19.87
-19.78
-19.22
-19.75
-22.49
-27.75
-34.97
-43.01
-50.62
-57.02
-62.06
-66.19
-70.11
-74.44
-79.55
-85.56
-92.40
-99.77
-106.92
-112.61
-115.23
-113.26
-105.95
-93.72
-78.21
-61.74
-46.62
-34.43
-25.81
-20.51
-17.77
-16.70
-16.51
-16.49
-16.05
-14.68
-12.04
-8.06
-3.05
2.34
7.23
10.69
12.04
10.99
7.78
3.06
-2.25
-7.31
-11.51
-14.55
-16.48
-17.53
-18.15
-18.94
-20.60
-23.87
-29.11
-35.99
-43.30
-49.12
-51.40
-48.76
-41.12
-29.84
-17.16
-5.34
4.10
10.84
15.46
18.89
21.75
24.14
25.81
26.55
26.56
26.45
26.96
28.55
31.14
34.10
36.54
37.70
37.22
35.29
32.55
29.88
28.27
28.57
31.25
36.09
41.97
46.78
47.79
42.26
28.31
5.70
-23.74
-56.27
-86.97
-110.87
-124.20
-125.25
-114.64
-94.98
-70.04
-43.81
-19.73
-0.27
13.19
20.29
21.50
18.08
11.86
5.03
-0.25
-2.28
-0.13
6.14
15.65
26.90
38.16
47.78
54.49
57.47
56.39
51.41
43.11
32.45
20.73
9.28
-0.81
-8.99
-15.38
-20.52
-25.01
-29.01
-32.07
-33.23
-31.50
-26.43
-18.52
-9.08
0.07
7.22
11.26
11.97
9.93
6.30
2.54
0.06
-0.13
2.35
7.17
13.34
19.52
24.40
27.07
27.21
25.13
21.65
17.79
14.53
12.49
11.66
11.37
10.53
7.96
2.90
-4.67
-14.06
-24.12
-33.78
-42.34
-49.60
-55.63
-60.48
-63.99
-65.87
-66.00
-64.62
-62.46
-60.32
-58.63
-57.03
-54.22
-48.65
-39.27
-26.40
-11.91
1.37
10.78
14.81
13.71
9.16
3.41
-1.66
-5.17
-7.14
-8.07
-8.42
-8.33
-7.77
-6.69
-5.25
-3.84
-2.88
-2.76
-3.82
-6.43
-11.03
-18.03
-27.43
-38.52
-49.73
-58.92
-63.95
-63.43
-57.11
-45.91
-31.55
-16.05
-1.27
11.32
20.69
26.32
28.26
27.17
24.26
21.03
18.90
18.75
20.72
24.22
28.07
30.89
31.51
29.22
24.06
16.75
8.65
1.38
-3.48
-4.87
-2.57
2.57
8.73
13.49
14.56
10.58
1.73
-10.14
-22.04
-30.79
-34.09
-31.18
-22.85
-10.93
2.56
16.10
28.82
40.40
50.63
59.11
65.28
68.61
68.93
66.57
62.26
56.82
50.83
44.55
37.93
30.94
23.78
16.88
10.83
6.09
2.81
0.69
-0.88
-2.74
-5.68
-10.36
-17.06
-25.66
-35.48
-45.27
-53.34
-57.86
-57.43
-51.49
-40.64
-26.59
-11.71
1.49
10.98
15.66
15.46
11.27
4.68
-2.33
-7.76
-10.07
-8.47
-3.22
4.48
12.90
20.31
25.47
27.94
27.89
25.81
22.03
16.54
8.94
-1.24
-14.17
-29.60
-46.75
-64.42
-81.15
-95.39
-105.67
-110.86
-110.43
-104.60
-94.34
-81.01
-66.10
-50.73
-35.66
-21.33
-8.19
3.18
12.07
17.79
20.03
18.99
15.43
10.53
5.75
2.49
1.78
3.98
8.52
14.14
19.23
22.45
23.25
21.91
19.21
15.84
12.02
7.42
1.40
-6.49
-16.26
-27.47
-39.25
-50.39
-59.38
-64.55
-64.42
-58.22
-46.38
-30.63
-13.52
2.33
15.04
23.83
28.94
31.17
31.43
30.41
28.66
26.69
25.12
24.55
25.37
27.60
30.75
33.97
36.29
36.96
35.75
32.99
29.53
26.37
24.40
24.01
24.96
26.54
27.75
27.70
25.86
22.21
17.18
11.47
5.76
0.55
-4.00
-8.17
-12.60
-18.13
-25.42
-34.56
-44.61
-53.59
-58.84
-57.93
-49.67
-34.74
-15.61
4.26
21.63
34.44
42.09
45.07
44.31
40.58
34.40
26.33
17.29
8.57
1.52
-2.99
-4.91
-4.97
-4.32
-4.02
-4.57
-5.79
-6.81
-6.45
-3.60
2.37
11.21
21.76
32.31
41.12
47.04
49.82
50.05
48.64
46.36
43.53
40.18
36.28
32.12
28.29
25.37
23.56
22.39
20.93
18.10
13.24
6.40
-1.78
-10.42
-18.84
-26.90
-34.92
-43.49
-53.13
-64.15
-76.40
-89.25
-101.21
-109.99
-112.84
-107.44
-93.05
-71.24
-45.73
-21.23
-1.76
10.60
16.06
16.40
13.73
9.60
4.79
-0.22
-4.78
-7.93
-8.78
-7.14
-3.81
-0.27
1.93
1.87
-0.33
-3.68
-6.79
-8.49
-8.29
-6.52
-4.25
-2.93
-4.04
-8.56
-16.62
-27.29
-38.68
-48.34
-53.92
-53.83
-47.76
-36.58
-22.04
-6.05
9.89
24.94
38.76
51.11
61.42
68.74
72.02
70.60
64.68
55.44
44.73
34.65
26.94
22.61
21.70
23.40
26.33
28.92
29.92
28.75
25.53
20.91
15.60
9.99
3.97
-2.81
-10.53
-18.76
-26.40
-32.00
-34.29
-32.69
-27.44
-19.36
-9.35
1.96
14.24
27.10
39.72
50.69
58.43
61.79
60.81
56.74
51.79
48.17
47.27
49.22
52.97
56.88
59.33
59.20
56.07
50.20
42.35
33.64
25.26
18.22
12.95
9.22
6.11
2.52
-2.24
-7.93
-13.31
-16.56
-16.00
-10.86
-1.50
10.76
24.12
36.92
47.82
55.76
59.89
59.55
54.51
45.37
33.55
21.13
10.16
2.17
-2.15
-3.04
-1.42
1.41
3.97
4.90
3.16
-1.69
-9.38
-19.04
-29.51
-39.81
-49.33
-57.87
-65.32
-71.43
-75.64
-77.30
-76.03
-71.97
-65.79
-58.42
-50.60
-42.53
-33.89
-24.19
-13.36
-2.20
7.71
14.49
16.87
14.85
9.93
4.61
1.38
1.74
5.55
11.19
16.29
18.69
17.23
11.95
3.93
-5.30
-14.28
-21.86
-27.39
-30.74
-32.23
-32.60
-32.73
-33.19
-33.91
-33.94
-31.76
-25.90
-15.64
-1.53
14.68
30.53
43.55
51.86
54.55
51.65
44.07
33.41
21.75
11.47
4.73
2.99
6.46
13.90
22.91
30.65
34.86
34.58
30.41
24.11
17.71
12.74
9.65
7.87
6.20
3.35
-1.57
-8.79
-17.66
-26.76
-34.09
-37.59
-35.73
-28.12
-15.65
-0.23
15.79
30.25
41.64
49.20
52.76
52.60
49.40
44.22
38.47
33.77
31.54
32.61
36.79
42.86
48.83
52.57
52.49
48.17
40.47
31.20
22.46
15.88
12.10
10.70
10.38
9.51
6.69
1.22
-6.64
-15.68
-23.99
-29.53
-30.80
-27.33
-19.82
-9.78
0.98
10.98
19.30
25.57
29.63
31.29
30.44
27.12
21.90
15.78
9.95
5.34
2.23
0.15
-1.81
-4.54
-8.55
-13.74
-19.61
-25.52
-31.10
-36.30
-41.41
-46.86
-53.11
-60.46
-68.90
-77.91
-86.27
-92.12
-93.35
-88.32
-76.66
-59.68
-40.19
-21.68
-7.18
1.68
5.01
4.25
1.44
-1.47
-3.16
-2.89
-0.50
3.76
9.27
15.04
19.88
22.67
22.63
19.69
14.41
7.89
1.45
-3.77
-6.98
-8.02
-7.29
-5.72
-4.56
-5.14
-8.38
-14.54
-22.90
-31.73
-38.74
-41.63
-38.99
-30.77
-18.36
-4.15
9.36
20.37
28.14
32.99
35.76
37.34
38.33
39.02
39.46
39.75
39.92
40.03
39.98
39.52
38.27
35.82
31.89
26.47
19.91
12.84
6.08
0.34
-3.96
-6.95
-9.22
-11.77
-15.64
-21.53
-29.45
-38.47
-46.75
-52.03
-52.23
-46.21
-34.24
-17.96
0.26
18.05
33.83
46.99
57.65
66.12
72.51
76.62
78.25
77.66
75.61
73.23
71.46
70.56
69.93
68.47
65.13
59.59
52.37
44.67
37.68
32.08
27.80
24.16
20.28
15.44
9.13
1.13
-8.63
-19.77
-31.22
-41.16
-47.35
-47.88
-42.12
-31.21
-17.79
-5.19
3.86
8.06
7.77
4.51
0.24
-3.45
-5.63
-5.96
-4.56
-1.85
1.46
4.32
5.45
3.66
-1.76
-10.68
-22.10
-34.40
-45.79
-54.85
-60.79
-63.58
-63.74
-62.27
-60.41
-59.38
-60.08
-62.63
-66.17
-68.90
-68.64
-63.57
-53.04
-37.92
-20.34
-2.98
11.86
22.78
29.52
32.51
32.55
30.39
26.70
22.18
17.69
14.10
12.13
12.01
13.34
15.21
16.53
16.42
14.60
11.35
7.37
3.36
-0.24
-3.54
-7.02
-11.46
-17.58
-25.77
-35.92
-47.20
-58.09
-66.55
-70.46
-68.23
-59.40
-44.85
-26.75
-7.81
9.40
23.15
32.85
38.84
41.99
43.30
43.53
43.21
42.73
42.44
42.57
43.24
44.30
45.36
45.87
45.30
43.33
39.94
35.45
30.40
25.41
20.88
16.82
12.71
7.64
0.75
-8.23
-18.54
-28.29
-34.95
-36.16
-30.67
-18.85
-2.67
14.96
31.09
43.54
51.32
54.49
53.85
50.51
45.70
40.68
36.70
34.94
36.19
40.58
47.35
54.94
61.33
64.65
63.78
58.64
50.24
40.14
29.84
20.29
11.55
2.96
-6.44
-17.38
-29.96
-43.49
-56.59
-67.53
-74.71
-77.13
-74.78
-68.59
-60.20
-51.40
-43.59
-37.37
-32.66
-29.05
-26.28
-24.62
-24.64
-26.94
-31.55
-37.75
-44.20
-49.50
-52.71
-53.71
-53.11
-51.80
-50.46
-49.32
-48.14
-46.61
-44.73
-42.96
-42.20
-43.40
-47.18
-53.43
-61.17
-68.69
-73.88
-74.84
-70.36
-60.34
-45.74
-28.31
-9.99
7.51
22.99
35.81
45.77
52.85
57.16
58.86
58.14
55.29
50.66
44.69
37.87
30.70
23.64
17.11
11.39
6.73
3.33
1.32
0.76
1.50
3.04
4.56
4.93
2.89
-2.70
-12.38
-25.77
-41.25
-56.09
-67.01
-71.16
-67.05
-55.11
-37.53
-17.53
1.60
17.42
28.55
34.60
35.85
33.11
27.59
20.98
15.24
12.03
12.17
15.12
19.16
21.96
21.52
17.04
9.14
-0.48
-9.74
-17.09
-21.81
-24.08
-24.61
-24.30
-24.09
-24.95
-27.70
-32.82
-39.96
-47.76
-53.94
-55.95
-51.92
-41.29
-25.09
-5.50
14.84
33.55
48.88
59.76
65.58
66.19
62.01
54.15
44.54
35.47
29.06
26.46
27.49
30.71
34.04
35.62
34.47
30.74
25.38
19.58
14.17
9.25
4.24
-1.84
-9.96
-20.67
-33.74
-48.00
-61.43
-71.59
-76.17
-73.72
-64.13
-48.65
-29.56
-9.55
8.95
24.06
34.60
39.96
40.05
35.34
26.93
16.46
5.77
-3.59
-10.80
-15.93
-19.79
-23.40
-27.55
-32.50
-37.97
-43.31
-47.81
-50.92
-52.51
-52.97
-53.31
-54.87
-58.88
-65.79
-74.79
-83.73
-89.63
-89.72
-82.40
-67.89
-48.16
-26.26
-5.40
11.93
24.38
31.70
34.46
33.67
30.57
26.52
22.92
20.97
21.40
24.07
27.91
31.22
32.33
30.32
25.49
19.18
13.24
9.08
7.08
6.50
5.74
3.02
-3.05
-12.98
-26.21
-41.03
-54.74
-64.26
-66.84
-61.07
-47.39
-28.09
-6.58
13.76
30.46
42.47
49.92
53.59
54.34
52.89
49.89
46.10
42.46
39.84
38.72
38.92
39.59
39.58
37.90
34.17
28.77
22.73
17.20
13.00
10.26
8.34
5.98
1.70
-5.66
-16.45
-29.90
-44.04
-56.06
-63.05
-62.88
-54.86
-40.04
-20.76
0.12
20.14
37.76
52.35
63.88
72.37
77.79
80.13
79.73
77.52
74.85
73.08
73.09
74.89
77.65
79.98
80.57
78.65
74.32
68.55
62.73
58.13
55.35
54.01
52.88
50.25
44.55
34.91
21.52
5.85
-9.48
-21.08
-25.72
-21.31
-7.88
12.14
34.40
54.00
67.05
71.70
68.40
59.17
46.60
33.00
20.11
9.25
1.58
-1.89
-0.74
4.50
12.13
19.63
24.40
24.64
19.90
11.07
-0.09
-11.68
-22.30
-31.39
-39.12
-46.07
-52.85
-59.89
-67.44
-75.58
-84.23
-92.95
-100.74
-106.07
-107.18
-102.63
-91.93
-75.80
-56.04
-34.95
-14.62
3.45
18.52
30.36
38.95
44.34
46.68
46.38
44.17
41.02
37.87
35.42
33.93
33.20
32.75
32.01
30.51
28.02
24.57
20.39
15.77
10.94
6.02
0.96
-4.43
-10.46
-17.58
-26.22
-36.58
-48.28
-60.08
-69.88
-75.26
-74.19
-65.91
-51.33
-32.82
-13.41
4.17
18.23
28.32
34.93
38.81
40.61
40.66
39.13
36.37
33.08
30.25
28.90
29.74
32.87
37.73
43.20
47.89
50.46
50.02
46.29
39.74
31.38
22.43
13.98
6.65
0.43
-5.24
-11.19
-18.25
-26.76
-36.38
-45.87
-53.32
-56.65
-54.31
-45.91
-32.46
-16.13
0.49
15.18
26.61
34.52
39.29
41.56
41.86
40.64
38.36
35.67
33.33
32.01
32.01
33.10
34.64
35.77
35.82
34.46
31.90
28.71
25.59
23.09
21.37
20.17
18.97
17.17
14.33
10.22
4.79
-1.89
-9.50
-17.33
-24.11
-28.17
-27.91
-22.43
-12.09
1.51
15.96
28.93
38.90
45.51
49.29
51.11
51.59
50.89
48.84
45.33
40.61
35.30
30.22
25.94
22.59
19.77
16.74
12.73
7.23
0.13
-8.26
-17.41
-26.74
-35.90
-44.84
-53.81
-63.23
-73.49
-84.76
-96.72
-108.56
-119.20
-127.42
-132.29
-133.37
-131.02
-126.38
-121.10
-116.72
-114.32
-114.38
-116.82
-121.29
-127.27
-134.27
-141.74
-148.96
-154.73
-157.87
-157.62
-153.85
-147.11
-138.38
-128.99
-120.65
-115.16
-113.17
-114.66
-118.71
-123.55
-126.51
-124.28
-113.83
-93.66
-64.62
-28.01
12.83
53.12
87.77
113.52
130.32
141.16
150.29
161.31
179.29
206.89
243.39
284.76
325.54
360.90
387.66
404.32
411.06
414.12
420.71
436.27
462.16
495.97
533.36
569.62
600.52
597.43
543.25
439.41
308.35
179.43
72.67
-6.10
-60.42
-97.13
-122.38
-136.04
-137.61
-128.27
-112.16
-94.29
-79.39
-69.29
-63.64
-61.03
-56.65
-47.89
-34.49
-18.85
-4.36
6.26
11.80
11.78
5.57
-2.25
-10.60
-19.45
-29.21
-39.86
-50.94
-61.83
-72.30
-82.48
-91.52
-102.54
-117.64
-136.37
-155.80
-172.73
-185.62
-194.96
-202.54
-209.86
-223.60
-247.85
-281.40
-318.54
-353.35
-383.00
-408.10
-431.36
-456.18
-493.13
-550.15
-627.77
-718.48
-810.82
-893.48
-957.36
-996.87
-964.31
-841.02
-647.62
-433.02
-242.05
-95.08
9.02
80.61
129.98
161.19
173.80
167.20
146.01
120.04
98.97
87.88
87.07
94.38
105.79
113.51
112.79
105.16
97.20
95.79
104.38
122.60
147.66
176.20
202.48
222.60
236.86
249.20
264.20
284.53
310.08
338.41
365.56
386.01
394.88
389.88
371.05
340.27
299.94
252.73
201.66
150.28
102.35
61.31
29.90
9.40
-0.03
0.75
10.30
26.57
46.88
68.47
87.79
101.13
105.04
98.89
84.85
67.32
51.21
40.69
39.79
49.81
68.63
89.57
107.27
118.23
121.24
116.10
103.50
88.42
75.94
69.62
66.68
66.52
68.36
70.84
70.36
63.52
54.97
51.96
60.91
78.54
104.69
139.40
183.09
233.66
288.44
352.09
427.99
514.73
597.59
669.09
727.14
774.94
814.67
803.51
715.59
553.38
398.21
275.28
188.66
119.82
63.04
14.68
-27.78
-58.97
-74.38
-73.95
-70.91
-72.00
-79.64
-91.70
-106.94
-124.18
-136.75
-139.34
-130.89
-121.26
-115.79
-116.56
-122.12
-131.53
-143.67
-153.88
-158.38
-156.23
-153.71
-154.46
-160.19
-170.13
-183.45
-198.76
-212.70
-222.42
-227.00
-229.73
-233.28
-239.58
-249.25
-262.28
-277.87
-294.21
-309.69
-323.95
-338.72
-355.97
-377.81
-406.18
-443.05
-489.56
-544.93
-605.29
-663.54
-710.55
-737.84
-740.51
-719.03
-678.77
-627.68
-573.17
-519.84
-469.14
-420.55
-373.28
-327.35
-283.42
-242.05
-202.91
-164.78
-126.27
-86.62
-46.12
-6.04
31.98
66.69
97.62
125.16
150.07
173.04
194.21
213.07
228.69
240.15
246.99
249.40
248.13
244.30
238.97
232.88
226.36
219.38
211.90
204.17
197.09
192.02
190.22
192.03
196.26
200.29
200.79
195.08
182.15
162.99
139.97
115.76
92.37
70.71
50.86
32.55
15.45
-0.84
-16.82
-33.00
-49.42
-65.05
-77.68
-84.48
-83.03
-72.43
-53.79
-30.09
-5.09
17.80
36.64
50.94
61.29
68.56
73.23
75.45
75.03
71.89
66.59
60.63
55.96
54.26
56.13
60.51
65.33
68.01
66.55
60.44
51.34
42.00
35.04
31.76
31.41
32.06
31.21
26.80
18.26
8.08
-0.06
-2.28
4.88
23.29
54.58
97.71
147.44
194.42
229.46
244.47
235.59
205.63
162.56
120.40
92.00
84.08
96.37
127.02
171.36
223.27
276.10
321.36
355.67
377.85
388.00
388.42
387.48
392.38
405.79
424.66
439.72
446.89
444.77
433.43
382.72
279.07
129.68
-39.71
-180.04
-285.89
-362.13
-414.95
-453.06
-479.67
-492.16
-488.65
-470.12
-440.64
-408.73
-376.57
-344.18
-312.47
-280.20
-246.29
-211.20
-175.62
-144.09
-120.19
-101.10
-83.17
-65.27
-48.70
-34.21
-21.68
-9.69
3.88
19.95
40.21
64.08
88.49
109.76
125.89
136.65
142.78
144.86
142.58
136.47
127.04
114.89
100.90
86.34
72.36
59.69
48.40
38.32
29.62
22.48
16.83
12.13
7.30
1.11
-7.30
-18.11
-30.52
-43.11
-54.39
-63.38
-69.96
-74.80
-78.92
-83.32
-88.43
-94.03
-99.36
-103.45
-105.31
-104.14
-99.49
-91.29
-79.95
-66.33
-51.72
-37.65
-25.61
-16.72
-11.34
-8.96
-8.26
-7.57
-5.33
-0.60
6.83
16.63
28.26
41.36
55.93
72.18
90.24
109.95
130.77
151.85
172.22
190.80
206.45
217.93
224.20
224.76
220.14
212.03
202.97
195.53
191.23
189.85
189.35
186.58
178.47
163.11
140.35
111.62
79.22
45.48
12.08
-20.18
-51.34
-81.98
-113.15
-146.37
-183.34
-225.37
-272.41
-322.11
-369.77
-409.26
-434.87
-443.34
-434.92
-413.16
-383.21
-349.78
-315.40
-279.99
-241.65
-198.20
-148.63
-93.82
-36.40
20.08
72.10
116.96
153.07
179.92
197.79
207.59
210.61
208.38
202.23
192.96
180.44
163.80
141.85
113.86
80.04
41.67
0.68
-40.83
-81.04
-118.38
-151.51
-179.35
-201.23
-217.16
-227.75
-233.74
-235.34
-231.76
-221.38
-202.48
-174.21
-137.31
-94.12
-48.14
-3.30
36.75
69.09
91.98
105.17
110.03
109.14
105.58
101.81
98.95
96.75
94.24
90.81
86.80
83.39
81.90
82.84
85.51
88.45
90.44
91.44
92.78
96.41
103.70
114.47
126.96
138.58
147.19
151.81
152.70
150.51
145.35
136.27
121.60
100.01
71.54
38.14
3.30
-29.08
-55.93
-75.77
-88.85
-96.54
-100.47
-101.96
-101.76
-100.30
-98.07
-95.73
-94.01
-93.40
-93.95
-95.34
-97.26
-99.73
-103.11
-107.88
-114.12
-121.10
-127.17
-130.22
-128.38
-120.78
-107.92
-91.54
-73.93
-57.26
-43.03
-32.08
-24.90
-21.95
-23.90
-31.30
-44.24
-61.83
-82.07
-101.89
-117.71
-126.19
-125.13
-114.14
-94.85
-70.53
-45.08
-21.84
-2.81
11.51
21.50
27.62
29.79
27.40
19.93
7.76
-7.43
-22.88
-35.54
-43.02
-44.30
-39.77
-30.74
-18.87
-5.67
7.70
20.29
31.37
40.56
48.01
54.42
60.82
68.06
76.41
85.58
95.00
104.38
113.86
123.84
134.41
144.91
153.84
159.34
159.95
155.17
145.72
133.23
119.82
107.70
98.95
95.39
98.28
107.72
122.24
138.75
153.51
163.58
168.03
168.23
166.89
166.20
166.28
164.78
157.97
142.48
116.89
82.24
41.47
-1.71
-43.73
-81.57
-112.91
-136.25
-151.29
-159.42
-163.59
-167.68
-175.29
-188.61
-207.86
-231.45
-256.61
-280.19
-299.03
-310.38
-312.05
-302.70
-282.10
-251.24
-212.39
-168.60
-123.35
-80.18
-42.60
-14.08
2.25
4.20
-8.58
-33.83
-66.51
-99.44
-124.96
-136.98
-132.55
-112.56
-81.06
-43.76
-6.40
26.74
53.43
73.06
85.81
92.04
92.00
86.11
75.41
61.38
46.58
34.41
28.11
29.64
38.84
53.53
70.40
86.19
97.57
103.00
102.82
98.60
92.00
83.98
74.75
64.05
51.48
34.82
12.62
-14.93
-45.73
-76.64
-104.65
-127.55
-144.31
-154.85
-161.92
-167.37
-171.03
-170.82
-164.38
-150.50
-129.37
-102.19
-56.69
10.83
93.85
177.51
247.49
297.01
326.96
342.32
348.29
349.10
344.59
334.40
319.58
302.72
286.41
271.53
258.60
246.62
234.41
219.48
200.85
179.38
157.24
136.33
117.17
98.93
79.87
58.58
33.29
3.66
-29.20
-63.27
-96.75
-128.90
-160.32
-192.78
-228.46
-269.69
-317.20
-369.34
-421.97
-469.47
-506.42
-529.04
-536.25
-529.48
-512.13
-488.16
-461.07
-433.41
-406.92
-382.79
-361.81
-344.39
-330.31
-318.75
-308.41
-297.84
-285.74
-271.23
-254.06
-234.50
-213.18
-190.77
-167.67
-143.79
-118.69
-91.75
-62.56
-31.18
1.75
35.13
67.72
98.55
127.23
154.12
180.32
207.30
236.45
268.51
303.09
338.58
372.38
401.40
422.61
433.57
433.00
421.20
400.25
373.61
345.17
318.10
294.02
272.98
254.16
236.90
221.35
208.51
199.55
195.21
195.46
199.77
207.37
217.63
229.82
242.84
254.98
263.79
266.12
258.49
237.78
202.35
153.27
94.77
33.62
-22.74
-68.27
-99.80
-117.16
-122.19
-117.43
-105.42
-88.88
-71.01
-55.46
-45.52
-42.94
-47.24
-56.05
-66.27
-75.44
-82.48
-87.26
-89.68
-88.85
-83.01
-70.28
-49.94
-23.24
6.65
35.51
59.35
75.54
83.19
82.96
76.49
65.81
52.93
39.71
27.65
17.74
10.29
4.83
0.37
-4.24
-9.89
-16.95
-25.32
-34.63
-44.59
-55.25
-67.05
-80.75
-96.97
-115.76
-135.99
-155.28
-170.38
-178.16
-176.79
-166.68
-150.75
-133.69
-120.73
-116.15
-122.17
-138.39
-161.97
-188.18
-211.53
-226.93
-230.88
-222.33
-202.70
-175.34
-144.32
-113.34
-84.85
-59.83
-37.95
-17.92
1.95
23.25
46.74
71.90
96.85
119.11
136.70
149.41
159.37
170.40
186.67
210.94
243.50
282.21
323.32
362.89
397.66
425.39
444.60
454.42
454.80
447.08
434.26
420.52
409.81
404.22
403.05
403.05
400.10
391.05
375.17
354.02
330.42
306.90
284.72
263.77
243.03
221.68
199.55
177.05
154.78
133.08
111.95
91.21
70.61
49.87
28.96
8.19
-12.02
-31.28
-49.49
-66.82
-83.55
-99.94
-116.59
-133.62
-150.51
-166.33
-180.23
-191.96
-201.91
-210.69
-218.80
-227.46
-236.47
-244.14
-248.36
-248.38
-245.68
-243.36
-244.14
-249.37
-261.14
-278.85
-299.72
-320.32
-338.60
-354.61
-369.63
-384.68
-401.48
-426.82
-465.82
-519.44
-583.18
-648.53
-705.53
-745.10
-760.57
-751.37
-727.93
-701.48
-679.11
-661.93
-647.58
-633.67
-619.53
-605.41
-554.20
-449.79
-301.04
-137.22
12.84
135.09
228.64
292.31
337.43
370.76
390.55
397.20
396.38
398.69
414.08
448.24
501.64
570.79
646.44
712.34
754.35
765.02
745.46
703.05
647.69
588.28
531.31
478.19
424.85
367.91
307.35
246.72
190.46
141.27
98.95
61.59
25.56
-13.68
-58.87
-110.15
-165.11
-219.72
-269.22
-308.87
-334.49
-344.02
-338.20
-319.76
-292.67
-261.20
-229.36
-200.53
-177.34
-161.26
-152.60
-150.13
-151.34
-153.11
-152.72
-148.65
-140.76
-129.82
-116.79
-102.17
-85.85
-67.50
-47.20
-25.90
-5.38
12.12
24.56
30.55
29.55
21.99
9.21
-6.43
-21.83
-33.64
-39.13
-37.10
-28.31
-15.37
-1.80
9.04
14.91
15.06
10.25
2.38
-5.96
-11.87
-12.69
-6.57
6.90
26.46
49.36
72.26
92.26
107.93
119.64
129.27
139.41
152.23
168.50
187.14
205.21
218.62
223.48
217.56
201.47
179.04
156.40
140.30
135.69
144.13
163.09
186.59
207.09
218.26
217.64
207.87
195.52
187.85
188.72
195.97
201.85
196.25
171.00
123.06
55.02
-26.47
-112.99
-196.10
-268.06
-322.39
-354.88
-365.20
-357.87
-341.48
-325.81
-318.17
-320.84
-331.02
-342.88
-350.44
-349.91
-340.36
-323.09
-300.38
-274.52
-247.28
-219.79
-192.29
-164.42
-135.34
-104.12
-70.23
-34.18
2.41
36.93
66.57
89.43
105.05
114.33
119.12
121.60
123.67
126.74
131.43
137.51
144.42
151.08
156.18
158.60
157.84
153.95
147.76
140.23
132.25
125.84
123.00
125.33
133.71
148.51
169.11
194.82
223.51
251.14
274.19
288.05
287.88
270.75
238.10
196.02
156.01
129.67
124.48
145.00
188.65
246.20
304.85
352.99
382.38
393.01
389.17
376.83
366.38
365.79
377.68
399.24
424.96
448.04
466.96
481.98
465.44
403.01
299.15
176.21
60.12
-20.61
-71.74
-102.08
-118.96
-128.15
-131.33
-128.33
-120.78
-112.52
-107.64
-110.27
-119.20
-132.11
-147.31
-160.45
-168.65
-172.06
-173.73
-177.27
-186.20
-199.24
-214.02
-228.48
-239.20
-244.16
-243.86
-241.15
-239.29
-241.36
-247.12
-255.59
-265.64
-274.95
-280.93
-281.48
-275.93
-264.90
-250.68
-235.52
-222.47
-213.96
-210.16
-209.00
-207.47
-204.32
-199.37
-193.14
-184.54
-173.28
-159.00
-141.63
-121.61
-100.60
-83.85
-76.07
-79.52
-91.17
-108.79
-130.43
-154.91
-180.96
-207.75
-238.77
-276.55
-321.04
-365.82
-407.26
-442.21
-467.96
-480.97
-478.99
-467.34
-452.57
-439.63
-425.85
-411.94
-399.08
-389.08
-382.41
-349.29
-277.46
-174.32
-90.34
-33.96
-0.49
25.69
50.41
75.96
102.54
124.77
139.78
149.30
163.65
188.30
225.51
274.31
333.22
399.24
463.68
517.51
554.05
574.14
578.34
569.49
552.04
532.07
514.34
498.17
480.86
460.01
437.32
413.47
389.13
364.33
339.26
313.72
286.22
256.00
223.60
191.67
161.80
134.64
110.05
87.99
68.58
51.74
37.69
26.78
19.37
14.41
9.49
1.59
-11.74
-31.22
-55.13
-79.64
-99.86
-111.46
-112.13
-102.23
-84.59
-63.61
-43.89
-29.15
-21.42
-20.80
-25.68
-33.36
-40.84
-45.52
-45.82
-41.25
-32.46
-21.14
-9.70
-1.05
2.13
-1.88
-13.17
-29.97
-49.16
-67.20
-81.38
-90.37
-94.29
-94.09
-90.63
-84.07
-73.82
-59.08
-39.60
-16.35
8.43
31.72
50.59
63.01
68.41
67.69
62.93
56.75
51.71
49.88
52.44
59.81
71.66
87.21
105.33
124.69
143.83
161.33
176.04
187.36
195.33
200.58
203.98
206.39
208.30
209.90
211.02
211.40
210.78
208.91
205.66
200.94
194.66
186.61
176.40
163.49
147.33
127.58
104.29
78.03
49.68
20.22
-9.58
-39.23
-68.68
-98.15
-128.18
-159.47
-192.58
-227.53
-263.34
-297.90
-328.30
-351.75
-366.54
-372.69
-372.02
-367.44
-361.91
-357.62
-355.61
-355.94
-358.11
-361.37
-364.93
-368.06
-370.25
-371.51
-372.64
-375.22
-381.20
-392.21
-408.71
-429.54
-451.84
-471.70
-484.91
-488.08
-479.44
-459.14
-429.22
-392.84
-353.55
-314.38
-277.40
-243.66
-213.46
-186.70
-163.23
-142.92
-125.52
-110.60
-97.54
-85.77
-74.90
-64.64
-55.02
-46.24
-38.72
-32.12
-25.61
-18.06
-8.70
2.63
15.64
29.42
42.77
54.42
64.05
72.24
80.13
88.65
98.12
108.62
119.42
129.22
136.10
139.69
140.92
141.56
143.29
147.38
156.14
170.59
189.55
207.76
220.95
225.92
221.65
209.12
191.70
177.89
175.03
186.20
205.72
229.27
253.89
278.85
303.82
329.01
360.20
401.09
450.70
498.10
538.33
570.79
598.83
625.36
652.72
689.33
739.82
801.71
858.64
901.61
927.69
940.19
943.25
895.88
777.76
597.74
437.24
316.35
233.80
169.00
115.04
68.07
25.52
-7.66
-28.62
-39.39
-53.85
-77.37
-109.89
-146.83
-185.23
-223.38
-255.08
-276.46
-287.85
-299.02
-313.60
-331.24
-348.51
-363.46
-375.37
-381.01
-378.78
-369.75
-360.76
-354.71
-351.93
-350.77
-350.35
-350.12
-347.86
-341.57
-330.30
-316.12
-299.84
-281.91
-262.44
-241.93
-220.60
-197.59
-172.21
-144.99
-118.86
-97.17
-82.82
-76.98
-78.69
-85.07
-92.52
-98.28
-101.35
-102.49
-103.29
-105.02
-108.29
-113.14
-119.76
-128.74
-141.04
-157.22
-177.08
-199.51
-223.08
-246.80
-270.35
-293.73
-316.29
-336.13
-350.20
-355.63
-351.35
-339.17
-323.53
-309.65
-301.31
-299.21
-300.84
-301.90
-298.26
-287.30
-267.92
-239.90
-203.65
-160.66
-114.22
-68.92
-28.88
4.77
35.09
67.96
108.45
156.93
207.72
251.11
278.10
284.97
274.89
255.87
236.26
220.81
209.53
199.78
189.68
180.52
176.50
182.41
200.57
228.95
261.76
291.99
314.44
327.66
333.82
336.73
339.49
342.74
344.71
342.35
332.90
314.94
288.68
255.63
218.01
178.25
138.54
100.69
65.89
34.74
7.30
-16.78
-38.18
-57.68
-76.04
-93.63
-110.02
-123.82
-132.82
-134.81
-128.55
-114.72
-95.89
-75.78
-58.03
-44.99
-37.41
-34.81
-36.31
-41.26
-49.37
-60.48
-74.08
-89.19
-104.53
-118.86
-131.25
-141.07
-148.00
-152.20
-154.59
-157.01
-161.97
-171.65
-186.87
-206.13
-225.70
-240.79
-247.25
-243.06
-228.73
-206.72
-180.08
-151.03
-120.44
-87.83
-52.10
-12.43
30.79
75.47
117.82
153.14
177.27
187.98
185.91
174.23
157.45
139.66
123.27
108.74
95.27
81.95
68.56
55.69
44.28
35.09
28.25
23.42
19.94
17.08
14.22
11.20
8.52
7.43
9.58
16.42
28.39
44.50
62.45
79.39
92.84
101.37
104.67
103.26
97.92
89.43
78.68
66.81
55.36
45.93
39.70
36.90
36.67
37.39
37.32
35.28
31.02
25.14
18.69
12.55
6.94
1.30
-5.55
-14.90
-27.44
-42.66
-58.62
-72.17
-79.76
-78.57
-67.45
-47.45
-21.51
6.32
32.00
52.35
65.65
71.52
70.71
64.69
55.32
44.55
34.14
25.42
19.05
15.04
12.84
11.64
10.70
9.57
8.16
6.59
4.93
3.03
0.37
-3.94
-10.85
-21.00
-34.26
-49.34
-63.73
-74.08
-77.10
-70.58
-54.24
-29.96
-1.29
27.53
52.74
71.83
83.75
88.66
87.49
81.56
72.41
61.67
50.97
41.70
34.69
30.08
27.28
25.31
23.18
20.26
16.46
12.17
7.95
4.14
0.54
-3.68
-9.77
-18.87
-31.38
-46.38
-61.46
-73.11
-77.69
-72.58
-57.13
-33.06
-3.88
26.07
52.87
73.82
87.69
94.50
94.99
90.33
81.94
71.53
60.91
51.76
45.07
40.87
38.23
35.72
32.09
26.87
20.45
13.77
7.71
2.60
-1.99
-7.03
-13.71
-22.91
-34.96
-49.28
-64.25
-77.25
-85.03
-84.64
-74.35
-54.51
-27.67
2.12
30.60
54.39
71.73
82.31
86.82
86.32
81.95
74.93
66.64
58.58
51.96
47.40
44.69
42.87
40.84
37.77
33.61
28.96
24.75
21.65
19.70
18.16
15.67
10.74
2.12
-10.62
-26.78
-44.37
-60.29
-71.04
-73.65
-66.65
-50.62
-28.12
-2.80
21.64
42.47
58.19
68.36
73.09
72.64
67.51
58.60
47.57
36.54
27.71
22.51
21.13
22.44
24.47
25.19
23.22
18.28
11.02
2.60
-6.01
-14.38
-22.84
-32.28
-43.68
-57.63
-73.77
-90.60
-105.55
-115.52
-117.69
-110.48
-94.08
-70.54
-43.17
-15.60
9.15
29.07
43.29
51.59
54.17
51.48
44.41
34.41
23.46
13.73
6.96
4.00
4.57
7.40
10.79
13.23
13.86
12.70
10.41
7.94
5.97
4.60
3.18
0.59
-4.42
-12.73
-24.32
-38.04
-51.52
-61.60
-65.04
-59.43
-44.03
-20.16
9.04
39.23
65.95
85.50
95.63
95.63
86.26
69.34
47.34
23.01
-1.03
-22.62
-40.33
-53.61
-62.76
-68.73
-72.66
-75.46
-77.45
-78.30
-77.30
-73.86
-68.01
-60.60
-53.19
-47.66
-45.64
-48.11
-55.12
-65.60
-77.37
-87.38
-92.21
-88.91
-75.91
-53.70
-24.87
6.55
36.18
60.52
77.61
87.08
89.80
87.17
80.74
71.95
62.26
53.03
45.48
40.38
37.85
37.30
37.68
37.89
37.17
35.30
32.54
29.32
25.99
22.50
18.50
13.36
6.50
-2.52
-13.78
-26.84
-40.56
-53.07
-61.97
-64.79
-59.71
-46.33
-25.90
-1.20
24.22
46.94
64.46
75.49
79.87
78.17
71.34
60.59
47.44
33.77
21.59
12.60
7.59
6.13
6.65
7.11
5.86
2.34
-2.81
-8.21
-12.54
-15.33
-17.21
-19.65
-24.33
-32.44
-44.20
-58.72
-74.06
-87.54
-96.24
-97.61
-90.27
-74.44
-52.14
-26.60
-1.44
20.29
36.69
47.12
51.74
51.18
46.22
37.91
27.71
17.44
8.92
3.41
1.16
1.32
2.40
2.91
1.98
-0.36
-3.47
-6.55
-9.20
-11.66
-14.74
-19.52
-26.89
-37.24
-50.20
-64.52
-78.10
-88.19
-91.96
-87.30
-73.56
-51.95
-25.36
2.43
27.85
48.32
62.65
70.75
73.20
70.78
64.36
55.08
44.46
34.27
26.09
20.77
18.15
17.15
16.27
14.29
10.72
5.95
0.85
-3.67
-7.15
-9.79
-12.48
-16.42
-22.85
-32.57
-45.47
-60.24
-74.31
-84.39
-87.19
-80.61
-64.45
-40.64
-12.71
15.30
39.93
59.05
71.97
79.06
81.14
79.11
73.87
66.43
58.11
50.35
44.44
41.00
39.83
39.95
40.14
39.41
37.36
34.06
29.63
23.93
16.39
6.38
-6.43
-21.79
-38.93
-56.86
-74.54
-90.78
-103.93
-111.71
-111.56
-101.57
-81.44
-53.11
-20.41
11.97
39.89
60.76
73.79
79.57
79.43
74.88
67.33
58.17
48.76
40.37
33.93
29.83
27.78
27.00
26.45
25.17
22.67
18.93
14.41
9.67
5.12
0.73
-3.96
-9.74
-17.38
-27.33
-39.35
-52.28
-64.04
-71.88
-73.09
-65.84
-49.91
-26.99
-0.25
26.47
49.64
66.76
76.52
78.61
73.51
62.36
46.91
29.55
12.88
-0.80
-10.19
-15.24
-17.08
-17.41
-17.80
-19.18
-21.71
-25.01
-28.53
-31.96
-35.31
-38.94
-43.41
-49.29
-57.05
-66.74
-77.70
-88.30
-95.98
-97.87
-91.66
-76.59
-53.96
-26.88
0.70
25.11
43.92
56.15
61.98
62.19
57.77
49.85
39.82
29.37
20.22
13.72
10.40
9.86
10.92
12.23
12.73
12.01
10.26
7.98
5.64
3.34
0.75
-2.75
-7.86
-15.07
-24.41
-35.30
-46.45
-55.84
-61.00
-59.49
-49.59
-30.96
-4.99
25.40
56.54
84.95
108.17
125.15
135.99
141.41
142.19
138.93
132.33
123.51
114.30
106.95
103.45
104.58
109.43
115.64
120.39
121.84
119.86
116.02
112.53
110.75
110.43
109.83
106.74
99.75
88.85
75.08
59.80
44.11
28.89
15.42
5.86
2.99
9.15
24.99
48.68
76.29
103.02
124.81
139.39
146.30
146.28
140.33
129.16
113.20
92.97
69.47
44.23
19.08
-4.36
-25.13
-43.17
-59.28
-74.84
-91.45
-110.50
-132.79
-158.35
-186.40
-215.57
-244.15
-270.42
-292.86
-310.31
-322.28
-329.21
-332.42
-333.57
-333.65
-332.03
-326.21
-312.59
-288.16
-252.20
-207.08
-157.65
-109.55
-67.35
-33.35
-7.66
10.95
23.83
31.96
35.93
36.46
34.81
32.70
31.89
33.44
37.37
42.57
47.27
49.81
49.20
45.51
39.63
32.83
26.12
19.95
14.09
7.92
0.68
-8.20
-18.93
-31.17
-43.83
-54.98
-62.12
-62.75
-55.31
-39.95
-18.76
4.69
26.47
43.46
54.03
58.15
56.75
51.10
42.41
31.78
20.28
9.15
-0.40
-7.34
-11.13
-11.85
-10.20
-7.35
-4.64
-3.19
-3.70
-6.15
-10.02
-14.52
-19.08
-23.58
-28.33
-33.85
-40.59
-48.76
-58.24
-68.58
-78.68
-86.70
-90.12
-86.41
-74.11
-53.73
-28.05
-1.29
22.33
40.09
51.35
57.27
59.55
59.49
57.44
53.23
46.91
39.35
32.08
26.67
23.94
23.58
24.26
24.41
22.84
19.24
14.08
8.25
2.52
-2.77
-7.78
-13.10
-19.43
-27.40
-37.21
-48.37
-59.47
-68.28
-72.21
-69.09
-57.94
-39.48
-16.05
9.06
32.61
52.12
66.29
74.77
77.82
75.90
69.66
60.02
48.44
36.73
26.77
19.86
16.37
15.56
16.00
16.11
14.81
11.82
7.61
2.98
-1.37
-5.28
-9.20
-14.02
-20.76
-30.13
-42.21
-56.11
-69.90
-80.85
-85.97
-82.88
-70.67
-50.31
-24.52
3.05
28.81
50.09
65.55
74.96
78.77
77.71
72.64
64.69
55.29
46.14
38.76
34.12
32.21
32.17
32.64
32.37
30.69
27.72
24.15
20.74
17.86
15.28
12.18
7.51
0.36
-9.74
-22.60
-37.18
-51.51
-62.85
-68.18
-64.99
-52.30
-31.16
-4.60
23.18
48.10
67.17
79.03
83.74
82.20
75.60
65.22
52.53
39.23
27.20
17.96
12.25
9.70
8.99
8.42
6.64
3.11
-1.82
-7.27
-12.38
-16.82
-20.90
-25.52
-31.78
-40.61
-52.42
-66.83
-82.42
-96.84
-107.02
-109.95
-103.56
-87.54
-63.65
-35.36
-6.89
18.01
36.84
48.65
53.73
53.01
47.60
38.67
27.62
16.10
5.95
-1.32
-5.06
-5.69
-4.59
-3.43
-3.52
-5.27
-8.25
-11.62
-14.79
-17.74
-21.08
-25.77
-32.65
-42.19
-54.20
-67.69
-80.75
-90.67
-94.42
-89.47
-74.85
-51.69
-23.14
6.50
33.16
54.07
68.19
75.87
78.09
75.80
69.77
60.82
50.14
39.42
30.46
24.54
21.91
21.62
21.99
21.37
18.80
14.42
9.14
4.10
-0.02
-3.37
-6.89
-11.90
-19.65
-30.86
-45.46
-62.29
-79.06
-92.48
-98.90
-95.33
-80.57
-55.87
-24.80
7.78
37.21
60.29
75.84
84.31
87.00
85.22
79.91
71.86
62.07
51.94
43.12
36.98
34.06
33.85
34.96
35.64
34.52
31.04
25.61
19.20
12.95
7.52
2.91
-1.54
-6.83
-13.97
-23.68
-36.18
-50.95
-66.47
-80.21
-88.92
-89.37
-79.46
-59.20
-30.97
0.99
31.94
57.99
77.11
89.16
95.23
96.69
94.61
89.60
82.20
73.28
64.16
56.32
50.88
48.17
47.53
47.69
47.24
45.28
41.63
36.81
31.62
26.72
22.25
17.81
12.73
6.33
-1.79
-11.76
-23.49
-36.62
-50.23
-62.60
-71.12
-72.85
-65.53
-48.65
-24.01
4.63
32.73
56.39
73.38
83.29
86.94
85.59
80.34
72.08
61.74
50.58
40.22
32.16
27.35
25.75
26.33
27.49
27.60
25.66
21.43
15.42
8.46
1.28
-5.84
-13.07
-20.95
-30.06
-40.82
-53.39
-67.51
-82.32
-96.23
-106.92
-111.66
-108.06
-95.01
-73.25
-45.50
-15.76
11.78
33.91
48.94
56.77
58.37
55.10
48.36
39.46
29.76
20.66
13.46
8.97
7.22
7.36
8.08
8.05
6.49
3.38
-0.66
-4.83
-8.52
-11.61
-14.40
-17.50
-21.55
-27.18
-34.86
-44.78
-56.66
-69.36
-80.88
-88.51
-89.55
-82.14
-66.00
-42.68
-15.27
12.43
36.94
55.84
68.17
74.23
75.08
72.01
66.18
58.55
50.06
41.69
34.51
29.42
26.81
26.43
27.32
28.22
27.99
26.00
22.29
17.38
11.99
6.58
1.18
-4.56
-11.13
-18.98
-28.34
-39.18
-51.13
-63.38
-74.41
-82.01
-83.60
-77.03
-61.53
-38.31
-10.56
17.46
41.68
59.44
69.94
74.01
73.24
69.24
63.16
55.73
47.59
39.51
32.40
27.10
24.08
23.25
23.99
25.39
26.46
26.50
25.21
22.70
19.25
15.20
10.74
5.88
0.55
-5.34
-11.93
-19.47
-28.33
-38.70
-50.08
-60.80
-68.02
-68.41
-59.39
-40.34
-13.29
17.48
46.67
69.52
83.13
86.86
82.12
71.63
58.52
45.70
35.23
28.02
23.68
20.80
17.51
12.23
4.34
-5.64
-16.21
-25.62
-32.50
-36.37
-37.67
-37.47
-36.90
-36.68
-36.86
-36.91
-36.22
-34.66
-32.99
-32.71
-35.36
-41.44
-49.65
-56.93
-59.39
-53.83
-39.10
-16.52
10.67
38.68
64.31
85.67
101.87
112.44
116.85
114.63
105.87
91.71
74.22
55.73
37.85
20.95
4.23
-13.48
-32.82
-53.24
-73.14
-90.31
-102.77
-109.38
-110.11
-106.04
-99.12
-91.73
-86.15
-84.02
-85.91
-91.12
-97.76
-103.19
-104.53
-99.34
-86.19
-65.10
-37.67
-6.82
23.84
50.73
71.12
83.47
87.52
84.03
74.47
60.80
45.28
30.28
17.99
9.90
6.45
6.92
9.62
12.50
13.82
12.66
8.95
3.27
-3.65
-11.31
-19.72
-29.40
-41.31
-56.52
-75.83
-99.29
-125.65
-152.26
-175.46
-191.47
-197.58
-192.96
-178.75
-157.41
-131.77
-104.23
-76.55
-50.20
-26.73
-7.78
5.28
12.13
13.81
12.64
11.48
12.77
17.80
26.43
37.35
48.56
58.19
64.98
68.69
69.95
69.81
69.14
68.06
65.91
61.55
54.11
43.43
30.28
16.12
2.77
-7.93
-14.19
-14.49
-8.02
4.76
21.74
39.47
54.11
62.83
64.91
61.89
56.75
52.45
50.78
51.84
54.63
57.79
60.41
62.12
62.76
61.94
58.92
53.05
44.28
33.59
22.86
14.31
9.61
9.28
12.37
16.75
19.84
19.41
14.41
5.39
-5.60
-15.70
-22.28
-23.79
-20.24
-12.87
-3.34
7.05
17.76
28.76
39.95
50.54
59.10
64.05
64.41
60.41
53.47
45.59
38.63
33.64
30.71
29.31
28.74
28.50
28.33
27.93
26.64
23.31
16.50
5.07
-11.20
-31.04
-51.62
-68.99
-79.12
-79.10
-68.08
-47.68
-21.47
6.13
31.11
50.75
63.93
70.73
71.86
68.24
60.85
50.91
39.87
29.30
20.45
13.83
9.13
5.40
1.65
-2.78
-7.93
-13.43
-18.74
-23.59
-28.11
-32.88
-38.73
-46.57
-57.15
-70.67
-86.38
-102.27
-115.19
-121.48
-118.10
-103.83
-79.87
-49.70
-18.06
10.45
32.47
46.41
52.20
50.79
43.58
32.25
18.67
4.86
-7.20
-16.10
-21.32
-23.39
-23.58
-23.32
-23.67
-24.93
-26.79
-28.64
-30.09
-31.35
-33.25
-37.09
-44.09
-54.78
-68.46
-82.96
-94.89
-100.46
-96.64
-82.17
-58.15
-27.83
4.38
34.08
57.89
73.99
81.99
82.48
76.71
66.26
53.12
39.43
27.29
18.24
12.84
10.56
10.13
10.05
9.22
7.25
4.43
1.33
-1.63
-4.54
-8.08
-13.36
-21.50
-33.22
-48.31
-65.34
-81.60
-93.58
-97.77
-91.82
-75.34
-50.27
-20.31
10.13
37.19
58.31
72.47
79.69
80.61
76.09
67.24
55.58
43.06
31.62
22.73
16.88
13.56
11.61
9.88
7.72
5.16
2.61
0.43
-1.48
-3.80
-7.53
-13.71
-23.02
-35.59
-50.89
-67.64
-83.73
-96.35
-102.34
-98.93
-84.78
-60.65
-29.53
4.06
35.29
60.31
77.03
85.14
85.63
80.04
70.04
57.30
43.59
30.76
20.45
13.70
10.55
10.05
10.62
10.75
9.47
6.70
3.01
-0.84
-4.39
-7.85
-12.06
-18.21
-27.40
-40.12
-55.77
-72.51
-87.32
-96.60
-97.11
-86.99
-66.55
-38.28
-6.26
24.99
51.61
71.11
82.53
86.03
82.52
73.39
60.44
45.88
32.04
20.97
13.82
10.60
10.27
11.27
12.18
12.24
11.41
10.10
8.68
7.02
4.44
-0.14
-7.77
-18.98
-33.40
-49.40
-64.25
-74.47
-76.75
-68.94
-50.94
-24.90
5.24
34.79
59.59
76.89
85.67
86.38
80.49
69.89
56.64
42.73
29.94
19.54
12.16
7.67
5.34
4.26
3.64
3.01
2.25
1.39
0.27
-1.50
-4.63
-9.93
-18.15
-29.54
-43.52
-58.36
-71.18
-78.47
-77.00
-64.96
-42.82
-13.34
19.01
49.42
73.92
90.17
97.62
97.05
90.09
78.70
64.92
50.79
38.12
28.25
21.81
18.56
17.64
17.90
18.39
18.63
18.58
18.35
17.83
16.47
13.34
7.40
-2.10
-15.27
-31.37
-48.67
-64.52
-75.74
-79.31
-73.26
-57.54
-34.16
-6.80
20.30
43.48
60.41
70.23
73.16
69.97
61.71
49.62
35.30
20.62
7.37
-3.16
-10.49
-14.98
-17.51
-19.15
-20.69
-22.54
-24.73
-27.19
-29.86
-32.96
-36.99
-42.68
-50.78
-61.70
-75.10
-89.53
-102.42
-110.43
-110.41
-100.36
-80.34
-52.62
-21.09
9.82
36.24
55.72
67.24
70.92
67.58
58.49
45.37
30.48
16.41
5.47
-0.93
-2.79
-1.44
1.05
2.80
2.81
1.15
-1.34
-3.75
-5.71
-7.62
-10.48
-15.52
-23.70
-35.32
-49.76
-65.29
-79.13
-87.85
-88.11
-77.82
-57.02
-28.21
4.17
35.03
60.07
76.80
84.77
85.07
79.46
69.69
57.34
43.93
31.07
20.37
13.04
9.40
8.70
9.40
9.79
8.69
5.91
2.10
-1.71
-4.84
-7.44
-10.58
-15.90
-24.97
-38.61
-56.32
-75.97
-94.01
-106.16
-108.50
-98.73
-77.03
-46.27
-11.17
23.00
51.87
72.81
85.10
89.27
86.49
78.02
65.29
50.14
34.85
21.94
13.36
9.88
10.71
13.89
17.10
18.63
17.94
15.60
12.66
9.91
7.37
4.22
-0.81
-8.91
-20.75
-36.03
-53.35
-70.06
-82.64
-87.32
-81.21
-63.35
-35.33
-1.04
34.44
66.28
91.10
107.53
115.84
117.20
113.05
104.80
93.96
82.33
71.95
64.73
61.86
63.34
67.98
73.82
78.96
82.33
84.17
85.77
88.68
93.72
100.29
106.37
109.09
105.71
94.23
73.84
44.94
9.07
-30.95
-71.19
-107.02
-134.24
-150.20
-154.64
-149.65
-138.57
-124.74
-110.50
-97.13
-85.35
-75.99
-70.07
-68.34
-70.63
-75.46
-80.38
-82.95
-81.70
-76.66
-69.24
-61.48
-55.15
-51.14
-49.38
-49.15
-49.67
-50.55
-52.00
-54.64
-59.25
-66.43
-76.33
-88.37
-101.03
-111.73
-117.17
-114.13
-100.54
-76.46
-44.43
-8.80
25.47
54.26
75.14
87.45
91.77
89.21
81.03
68.71
54.15
39.79
28.12
21.05
19.15
21.44
25.73
29.49
30.71
28.57
23.49
16.69
9.56
2.99
-2.91
-8.78
-15.70
-24.79
-36.84
-51.97
-69.20
-86.28
-99.78
-105.73
-100.83
-83.63
-55.43
-20.13
16.82
50.03
75.67
92.12
99.76
100.14
95.01
85.91
74.17
61.25
48.88
38.87
32.66
30.69
32.18
35.35
38.00
38.33
35.48
29.70
22.05
13.77
5.80
-1.57
-8.66
-16.11
-24.64
-34.87
-47.27
-61.92
-78.16
-94.11
-106.58
-111.64
-105.75
-87.28
-57.48
-20.41
18.20
52.72
79.25
96.31
104.56
105.89
102.34
95.52
86.65
76.79
67.16
59.08
53.71
51.65
52.72
55.96
59.95
63.23
64.68
63.72
60.30
54.71
47.36
38.63
28.77
17.97
6.40
-5.74
-18.31
-31.31
-44.75
-58.34
-71.08
-80.88
-84.80
-79.77
-63.76
-36.89
-1.79
36.82
73.47
103.50
124.28
135.58
138.99
136.94
131.64
124.64
116.83
108.94
101.80
96.41
93.62
93.75
96.47
100.87
106.05
111.42
116.89
122.63
128.67
134.58
139.52
142.49
142.63
139.51
133.00
123.11
109.82
93.05
72.71
48.78
21.42
-8.73
-40.41
-71.66
-100.13
-123.76
-141.56
-153.96
-162.51
-168.81
-173.36
-174.90
-170.93
-159.01
-138.48
-111.20
-81.27
-53.61
-32.26
-19.29
-14.66
-16.97
-24.51
-36.06
-51.15
-69.72
-91.44
-115.19
-138.84
-159.57
-174.56
-181.70
-180.14
-170.46
-154.50
-135.09
-115.56
-99.29
-89.02
-85.92
-88.87
-94.30
-97.11
-92.29
-76.94
-51.51
-19.75
12.72
40.41
59.80
69.99
72.17
68.61
61.48
52.39
42.47
32.64
23.93
17.35
13.61
12.74
14.06
16.31
18.09
18.33
16.57
13.03
8.40
3.50
-1.11
-5.29
-9.39
-14.11
-20.22
-28.39
-38.97
-51.76
-65.84
-79.32
-89.44
-93.08
-87.60
-71.86
-46.92
-15.99
16.40
45.71
68.62
83.71
91.31
92.76
89.56
82.91
73.68
62.66
50.98
40.03
31.22
25.49
22.84
22.38
22.57
21.86
19.25
14.63
8.70
2.53
-3.02
-7.72
-12.12
-17.32
-24.56
-34.73
-48.01
-63.61
-79.75
-93.71
-102.29
-102.47
-92.35
-71.92
-43.40
-10.72
21.51
49.21
69.74
82.16
86.78
84.58
76.78
64.85
50.61
36.27
24.10
15.75
11.71
11.14
12.29
13.27
12.90
11.05
8.40
5.95
4.29
3.19
1.71
-1.53
-7.86
-18.16
-32.42
-49.52
-67.06
-81.60
-89.37
-87.27
-74.01
-50.64
-20.51
11.78
41.55
65.29
81.12
88.74
88.89
82.88
72.32
59.02
45.01
32.28
22.38
16.04
13.03
12.32
12.65
12.96
12.80
12.25
11.68
11.30
10.84
9.56
6.27
-0.22
-10.70
-25.08
-42.08
-59.07
-72.49
-78.65
-74.80
-60.15
-36.32
-6.98
23.18
49.78
69.78
81.92
86.40
84.31
77.02
65.96
52.67
38.93
26.62
17.40
12.14
10.60
11.52
13.13
13.90
13.09
10.89
8.08
5.48
3.36
1.25
-1.89
-7.33
-16.13
-28.73
-44.68
-62.40
-79.13
-91.29
-95.25
-88.40
-70.28
-42.97
-10.65
21.62
49.26
69.28
80.56
83.40
78.88
68.35
53.33
35.62
17.46
1.25
-10.94
-17.98
-20.06
-18.57
-15.62
-13.18
-12.50
-13.80
-16.52
-19.86
-23.29
-26.94
-31.50
-37.93
-46.98
-58.95
-73.36
-88.81
-102.94
-112.67
-114.79
-106.93
-88.54
-61.40
-29.34
2.83
30.77
51.68
64.66
70.23
69.53
63.77
54.01
41.52
28.05
15.77
6.72
2.13
1.84
4.39
7.61
9.49
8.98
6.19
2.12
-1.98
-5.33
-8.02
-10.95
-15.55
-23.21
-34.86
-50.55
-69.09
-87.99
-103.61
-111.81
-109.10
-93.82
-66.97
-32.17
5.29
39.92
67.54
86.03
95.25
96.32
90.80
80.20
66.02
49.97
34.21
20.99
12.19
8.63
9.74
13.75
18.27
21.18
21.24
18.32
13.16
6.87
0.37
-5.98
-12.42
-19.58
-28.31
-39.34
-53.07
-69.23
-86.43
-102.01
-112.29
-113.47
-102.94
-80.47
-48.54
-11.87
24.09
54.66
77.02
90.44
95.69
94.22
87.50
76.93
63.95
50.32
38.03
28.95
24.24
24.00
27.11
31.65
35.54
37.18
35.92
32.07
26.54
20.33
14.04
7.67
0.68
-7.68
-18.13
-31.00
-46.05
-62.25
-77.55
-88.97
-93.08
-86.96
-69.31
-41.33
-6.72
29.21
61.13
85.24
99.99
105.99
104.97
98.78
88.82
76.08
61.62
46.99
34.15
24.99
20.53
20.50
23.32
26.73
28.58
27.53
23.41
16.92
9.19
1.18
-6.69
-14.64
-23.21
-33.07
-44.72
-58.31
-73.47
-89.05
-102.97
-112.31
-113.91
-105.38
-86.10
-57.79
-24.27
9.61
39.40
62.04
76.32
82.44
81.34
74.18
62.21
46.99
30.63
15.63
4.39
-1.50
-1.81
2.21
8.25
13.75
16.74
16.33
12.85
7.34
0.97
-5.58
-12.33
-19.89
-29.04
-40.43
-54.23
-70.03
-86.66
-102.06
-113.34
-117.19
-110.78
-92.88
-64.67
-29.75
6.76
39.73
65.39
82.06
90.01
90.68
85.79
76.92
65.40
52.64
40.19
29.73
22.63
19.57
20.27
23.55
27.64
30.72
31.38
29.03
23.88
16.76
8.70
0.53
-7.41
-15.28
-23.57
-32.96
-44.09
-57.40
-72.76
-89.12
-104.20
-114.59
-116.52
-107.09
-85.55
-53.90
-16.67
20.47
52.38
75.74
89.62
94.99
93.75
87.82
78.77
67.86
56.37
45.75
37.47
32.57
31.32
33.02
36.21
39.15
40.42
39.18
35.36
29.41
22.05
13.94
5.56
-2.87
-11.37
-20.11
-29.39
-39.66
-51.35
-64.59
-78.78
-92.07
-101.43
-103.23
-94.47
-74.10
-43.81
-7.81
28.37
59.62
82.65
96.51
102.19
101.56
96.50
88.46
78.55
67.90
57.82
49.63
44.31
42.17
42.75
45.02
47.74
49.75
50.17
48.45
44.36
37.98
29.64
19.89
9.36
-1.37
-11.92
-22.19
-32.36
-42.91
-54.41
-67.19
-80.87
-93.82
-103.23
-105.65
-98.22
-79.94
-52.43
-19.68
13.06
41.00
61.17
72.79
76.85
75.09
69.05
59.83
48.25
35.41
22.87
12.45
5.72
3.40
5.08
9.40
14.47
18.51
20.22
18.99
14.88
8.41
0.30
-8.70
-18.00
-27.19
-36.06
-44.60
-53.08
-61.99
-71.96
-83.26
-95.24
-105.94
-112.13
-110.28
-97.85
-74.50
-42.72
-7.14
26.79
54.47
73.30
82.86
84.38
79.82
71.24
60.40
48.89
38.14
29.44
23.68
21.14
21.48
23.79
26.98
30.03
32.18
32.86
31.66
28.24
22.43
14.31
4.37
-6.58
-17.54
-27.65
-36.40
-43.91
-50.90
-58.52
-67.92
-79.58
-92.63
-104.58
-111.65
-109.93
-96.81
-72.26
-39.25
-2.90
31.04
58.02
75.74
84.28
85.35
81.17
73.73
64.44
54.41
44.67
36.30
30.29
27.19
26.96
28.89
31.88
34.71
36.37
36.19
33.93
29.62
23.55
16.11
7.69
-1.26
-10.37
-19.29
-27.79
-35.93
-44.14
-53.18
-63.71
-75.65
-87.53
-96.45
-98.71
-91.09
-72.33
-43.91
-9.85
24.48
54.13
75.82
88.51
93.04
91.19
84.86
75.64
64.86
53.78
43.69
35.81
30.94
29.28
30.31
33.04
36.25
38.79
39.78
38.69
35.30
29.63
21.94
12.64
2.30
-8.44
-19.03
-29.08
-38.59
-47.98
-58.05
-69.49
-82.31
-95.14
-105.17
-108.73
-102.57
-85.32
-58.36
-25.74
7.16
35.27
55.34
66.42
69.47
66.25
58.47
47.39
34.04
19.55
5.49
-6.41
-14.67
-18.59
-18.40
-15.23
-10.69
-6.34
-3.42
-2.55
-3.86
-7.05
-11.70
-17.36
-23.68
-30.45
-37.62
-45.36
-54.02
-63.91
-74.99
-86.27
-95.67
-100.18
-96.69
-83.22
-59.92
-29.32
4.19
35.74
61.39
78.97
88.21
90.11
86.21
78.00
66.76
53.83
40.71
29.08
20.46
15.71
14.77
16.61
19.55
21.78
21.95
19.41
14.31
7.24
-1.03
-9.88
-18.95
-28.02
-37.03
-45.98
-55.09
-64.71
-75.17
-86.26
-96.67
-103.87
-104.61
-96.16
-77.56
-50.49
-19.03
11.59
36.72
53.62
61.94
63.11
59.28
52.34
43.53
33.65
23.52
14.26
7.18
3.41
3.38
6.61
11.82
17.28
21.42
23.24
22.43
19.31
14.48
8.48
1.58
-6.18
-14.90
-24.68
-35.55
-47.52
-60.53
-74.15
-87.18
-97.38
-101.60
-96.76
-80.97
-54.67
-20.95
15.16
48.25
74.08
90.64
98.14
98.25
93.05
84.26
73.13
60.72
48.30
37.35
29.32
25.08
24.51
26.53
29.40
31.39
31.34
28.89
24.44
18.77
12.59
6.23
-0.49
-8.14
-17.44
-29.00
-43.10
-59.38
-76.65
-92.71
-104.43
-108.47
-102.22
-84.92
-58.22
-25.96
6.98
36.11
58.44
72.86
79.64
79.69
73.91
63.18
48.70
32.40
16.81
4.53
-2.66
-4.45
-2.07
2.20
5.92
7.34
5.83
1.80
-3.79
-10.03
-16.43
-23.03
-30.26
-38.71
-48.92
-61.21
-75.44
-90.64
-104.72
-114.55
-116.59
-108.02
-87.99
-58.33
-23.20
12.00
42.41
64.86
78.38
83.66
82.13
75.30
64.44
50.91
36.44
23.16
13.14
7.70
6.91
9.48
13.26
16.09
16.49
14.14
9.69
4.26
-1.19
-6.33
-11.59
-17.88
-26.22
-37.36
-51.53
-68.24
-86.08
-102.61
-114.56
-118.38
-111.34
-92.59
-63.82
-29.05
6.44
37.72
61.44
76.47
83.44
83.89
79.39
71.15
60.16
47.65
35.29
25.05
18.62
16.75
18.88
23.30
27.73
30.20
29.62
26.06
20.37
13.69
6.84
0.04
-7.08
-15.22
-25.09
-37.27
-51.92
-68.58
-85.86
-101.23
-111.26
-112.36
-102.01
-79.82
-48.14
-11.53
24.44
54.88
76.83
89.59
94.28
92.84
87.16
78.67
68.48
57.70
47.63
39.68
34.94
33.77
35.65
39.30
43.13
45.70
46.07
43.85
39.19
32.50
24.33
15.21
5.57
-4.25
-14.07
-23.92
-34.08
-45.05
-57.31
-70.75
-84.14
-94.82
-99.19
-93.75
-76.67
-48.81
-13.88
22.59
55.04
79.53
94.54
100.83
100.31
95.06
86.64
76.20
64.79
53.73
44.55
38.54
36.28
37.32
40.37
43.70
45.75
45.50
42.57
37.16
29.76
20.93
11.25
1.16
-8.98
-18.94
-28.71
-38.50
-48.83
-60.35
-73.49
-87.88
-101.86
-112.41
-115.81
-108.90
-90.43
-61.97
-27.69
6.86
36.51
57.91
70.06
73.91
71.35
64.33
54.39
42.81
30.86
20.03
11.83
7.36
6.99
10.08
15.25
20.67
24.60
25.78
23.69
18.50
10.88
1.76
-8.00
-17.78
-27.24
-36.33
-45.20
-54.24
-64.00
-75.05
-87.40
-100.06
-110.67
-115.78
-111.91
-96.86
-70.91
-37.12
-0.61
33.04
59.47
76.54
84.47
85.00
80.42
72.71
63.40
53.61
44.41
36.81
31.61
29.17
29.22
30.98
33.41
35.51
36.47
35.72
32.92
27.92
20.82
12.00
2.08
-8.19
-18.12
-27.26
-35.58
-43.49
-51.78
-61.39
-72.86
-85.71
-97.99
-106.39
-107.09
-97.12
-75.78
-45.22
-10.01
24.29
52.86
72.87
83.79
86.86
84.12
77.51
68.62
58.68
48.82
40.19
33.78
30.18
29.38
30.81
33.48
36.33
38.37
38.86
37.28
33.33
27.02
18.65
8.77
-1.85
-12.46
-22.46
-31.61
-40.10
-48.60
-57.98
-68.88
-81.07
-92.97
-101.61
-103.44
-95.46
-76.65
-48.62
-15.41
17.85
46.47
67.50
80.14
85.30
84.65
79.85
72.19
62.66
52.31
42.30
33.91
28.16
25.56
25.95
28.53
32.12
35.42
37.32
37.05
34.31
29.23
22.26
14.05
5.20
-3.83
-12.82
-21.85
-31.26
-41.60
-53.30
-66.28
-79.45
-90.49
-96.25
-93.63
-80.78
-58.14
-28.59
3.27
32.58
55.58
70.48
77.42
77.70
72.87
64.19
52.60
39.04
24.86
11.83
1.74
-4.19
-5.82
-4.19
-1.11
1.47
2.16
0.50
-3.14
-7.96
-13.21
-18.56
-24.13
-30.38
-37.78
-46.75
-57.50
-69.98
-83.65
-97.16
-108.13
-113.48
-110.22
-96.58
-72.96
-42.14
-8.65
22.62
47.80
64.84
73.60
75.16
71.05
62.73
51.49
38.74
26.11
15.38
8.00
4.66
5.00
7.73
11.11
13.57
14.18
12.74
9.70
5.61
0.90
-4.39
-10.55
-17.99
-27.04
-37.89
-50.46
-64.31
-78.35
-90.69
-98.65
-99.38
-90.72
-72.22
-45.61
-14.51
16.57
43.61
63.99
76.81
82.48
81.99
76.43
66.85
54.51
41.09
28.60
19.00
13.48
12.13
13.85
16.80
19.10
19.51
17.72
14.26
10.02
5.73
1.59
-2.81
-8.33
-15.91
-26.22
-39.40
-54.77
-70.60
-84.20
-92.26
-91.66
-80.58
-59.28
-30.38
1.80
32.53
57.99
76.15
86.75
90.68
89.12
83.10
73.45
61.22
47.96
35.65
26.21
20.80
19.42
20.96
23.62
25.65
25.95
24.24
20.93
16.72
12.08
7.05
1.22
-6.10
-15.56
-27.51
-41.80
-57.59
-73.25
-86.35
-94.09
-93.81
-83.97
-64.81
-38.55
-8.96
19.69
43.73
60.84
70.21
72.11
67.40
57.20
42.90
26.30
9.60
-4.80
-14.98
-19.98
-20.22
-17.27
-13.33
-10.42
-9.78
-11.67
-15.49
-20.35
-25.53
-30.86
-36.73
-43.89
-53.01
-64.43
-77.78
-91.85
-104.54
-112.99
-114.21
-105.89
-87.32
-59.98
-27.34
5.94
35.33
57.53
71.10
76.22
74.18
66.66
55.31
41.81
27.90
15.48
6.27
1.44
1.09
4.18
8.80
12.88
14.88
14.25
11.44
7.43
3.13
-1.11
-5.65
-11.32
-19.00
-29.28
-42.22
-57.19
-72.75
-86.57
-95.59
-96.73
-87.77
-68.35
-40.48
-8.15
23.71
50.70
70.07
81.05
84.45
81.84
74.84
64.82
53.02
40.84
29.91
21.79
17.49
17.11
19.63
23.32
26.30
27.18
25.39
21.23
15.49
9.03
2.37
-4.37
-11.42
-19.20
-28.14
-38.65
-50.86
-64.38
-77.92
-89.05
-94.52
-91.13
-76.97
-52.42
-20.41
14.30
46.57
72.46
90.03
99.41
102.03
99.69
93.91
85.85
76.56
67.23
59.25
53.90
51.90
53.13
56.60
60.76
63.99
65.17
63.91
60.53
55.85
50.65
45.38
40.01
34.10
26.90
17.81
6.49
-7.08
-22.58
-39.16
-55.20
-68.21
-75.08
-73.20
-61.33
-40.32
-13.08
16.16
43.14
64.62
78.96
86.08
86.48
81.22
71.79
60.21
48.76
39.69
34.35
32.99
34.79
37.28
38.13
36.42
32.85
28.95
26.43
25.46
25.27
24.75
21.06
12.54
-0.26
-14.89
-28.72
-39.33
-46.68
-50.88
-51.48
-51.05
-52.22
-56.86
-65.78
-79.89
-99.09
-125.05
-158.24
-197.80
-246.58
-306.45
-375.60
-447.20
-512.23
-561.29
-591.33
-603.33
-575.53
-499.90
-386.15
-257.55
-135.77
-42.92
27.32
81.62
124.04
157.62
183.43
202.53
219.19
241.52
276.68
328.40
391.41
456.05
512.01
548.12
558.50
536.09
485.27
420.23
359.19
312.45
281.28
261.26
245.40
229.48
214.56
203.02
196.43
194.45
193.30
189.55
181.98
170.44
155.69
140.40
127.42
118.20
112.40
107.59
101.54
93.44
83.64
73.17
63.26
54.96
48.63
43.55
38.07
30.78
21.24
9.94
-2.09
-13.79
-24.45
-33.79
-42.27
-50.78
-60.17
-70.84
-82.59
-94.89
-107.07
-118.77
-129.90
-140.81
-152.08
-164.21
-177.46
-191.97
-207.95
-225.64
-245.06
-265.41
-284.90
-300.91
-310.86
-313.20
-308.07
-297.21
-283.11
-268.07
-253.50
-239.97
-227.76
-217.36
-209.36
-203.89
-199.75
-194.22
-183.75
-165.33
-137.95
-103.20
-64.76
-27.02
6.48
34.03
55.63
72.21
84.65
93.38
98.56
100.70
101.10
101.75
104.47
110.10
117.87
125.60
130.61
130.71
124.98
113.78
98.25
79.46
57.98
33.91
7.33
-21.13
-50.26
-78.60
-105.22
-130.07
-153.97
-177.80
-201.56
-224.03
-243.08
-256.72
-264.26
-266.67
-266.16
-265.22
-265.62
-268.09
-272.64
-279.02
-287.24
-297.53
-309.93
-323.87
-337.76
-349.14
-354.99
-352.59
-340.25
-318.06
-287.92
-253.13
-217.44
-183.83
-153.94
-127.99
-105.41
-85.49
-67.91
-52.75
-40.01
-29.43
-20.34
-11.92
-3.53
5.03
13.56
21.57
28.56
34.29
38.77
42.32
45.37
48.39
51.69
55.50
59.83
64.62
69.74
75.06
80.57
86.43
92.95
100.60
109.78
120.68
133.17
146.78
160.94
175.27
189.81
205.07
221.83
240.76
262.20
286.17
312.73
342.09
374.48
409.50
445.63
480.44
510.95
534.53
549.59
555.72
553.12
541.97
522.26
494.35
459.91
421.71
382.92
345.92
311.38
278.44
245.59
211.80
177.24
143.65
112.42
83.53
55.11
23.95
-13.61
-60.97
-120.52
-192.29
-271.37
-349.74
-417.89
-467.39
-493.22
-495.14
-477.64
-448.31
-414.17
-376.37
-333.93
-286.16
-234.50
-182.26
-132.78
-88.09
-48.80
-12.74
28.24
79.80
142.30
210.71
277.84
338.51
390.91
435.13
473.97
516.37
566.99
623.69
678.53
722.54
750.83
763.47
762.59
708.66
582.61
392.36
171.75
-40.59
-220.28
-359.71
-454.04
-517.09
-557.89
-574.39
-564.79
-531.98
-484.47
-434.93
-393.56
-366.25
-355.44
-357.33
-360.44
-354.58
-334.48
-300.91
-258.39
-211.68
-164.56
-120.70
-81.32
-43.95
-7.02
28.88
60.70
84.22
95.98
94.17
78.55
52.36
22.54
-3.60
-20.54
-26.05
-21.11
-8.49
8.67
27.46
46.26
64.40
80.72
93.08
98.75
95.58
83.25
63.72
40.60
18.28
0.28
-11.81
-18.41
-21.25
-22.20
-22.32
-21.54
-19.19
-14.85
-9.10
-3.51
-0.09
-0.37
-4.84
-12.85
-22.96
-33.39
-42.22
-47.61
-47.92
-42.04
-29.73
-11.75
10.23
34.02
57.33
78.03
94.28
104.55
107.89
104.17
94.40
80.70
65.94
52.90
43.52
38.33
36.35
35.50
33.38
27.95
17.96
3.18
-15.73
-37.30
-59.58
-80.58
-98.98
-114.58
-128.24
-140.95
-152.53
-160.63
-160.98
-149.06
-122.55
-83.10
-36.36
9.93
48.83
76.46
92.65
99.77
100.97
98.70
94.47
89.09
83.18
77.22
71.27
64.88
57.39
48.68
39.81
33.08
31.39
37.26
52.05
75.60
106.19
140.86
175.79
206.95
231.09
246.65
254.35
256.91
257.92
260.21
264.68
270.11
274.00
274.01
269.10
259.98
248.44
236.27
224.20
211.46
196.33
177.06
153.05
125.33
96.38
68.94
44.78
23.90
4.44
-16.45
-41.41
-72.10
-109.00
-151.49
-197.47
-242.88
-281.64
-306.98
-314.20
-303.66
-282.27
-261.81
-254.38
-266.86
-297.43
-336.13
-369.42
-386.33
-382.86
-362.53
-333.15
-302.23
-273.63
-247.53
-222.51
-198.38
-177.22
-162.42
-156.31
-158.18
-164.48
-170.76
-174.33
-175.36
-176.14
-178.76
-183.17
-186.85
-186.41
-179.96
-168.45
-155.37
-144.82
-139.38
-138.97
-141.01
-141.68
-137.17
-124.69
-102.98
-72.71
-36.60
1.08
35.73
64.19
86.02
103.49
120.06
138.17
157.66
175.91
189.54
196.65
198.03
196.73
196.30
198.94
204.72
212.16
219.57
226.14
232.24
238.75
246.19
254.06
260.74
264.08
262.06
253.43
237.91
216.11
189.25
158.66
125.58
90.83
54.74
17.19
-22.43
-65.27
-112.85
-166.50
-226.22
-289.46
-350.80
-402.73
-437.75
-450.92
-441.30
-411.67
-366.71
-310.90
-247.40
-178.53
-106.98
-36.60
28.32
84.64
131.83
171.89
207.80
241.51
272.73
299.59
320.14
333.35
339.31
338.11
329.10
311.47
286.04
256.83
230.78
215.11
213.57
224.06
238.98
248.65
245.79
228.37
199.69
165.62
131.06
97.69
64.07
27.68
-12.68
-55.48
-96.86
-132.29
-158.58
-175.12
-183.73
-187.61
-189.73
-191.77
-193.68
-194.27
-192.12
-186.29
-176.61
-163.37
-146.94
-127.47
-105.02
-79.91
-53.08
-26.18
-1.44
18.81
32.68
39.36
39.40
34.72
27.97
21.68
17.33
14.98
13.45
11.14
6.84
0.34
-7.66
-15.92
-23.19
-28.77
-32.65
-35.41
-38.03
-41.49
-46.43
-52.86
-60.12
-66.99
-72.13
-74.52
-73.80
-70.46
-65.63
-60.68
-56.81
-54.87
-55.48
-59.44
-68.10
-83.42
-107.43
-141.30
-184.53
-234.62
-287.46
-338.24
-382.30
-415.74
-435.67
-440.33
-429.22
-403.57
-366.52
-322.74
-277.59
-235.74
-199.98
-170.68
-146.14
-123.58
-100.42
-75.36
-48.75
-22.29
1.77
21.75
37.44
50.34
63.44
80.63
105.91
142.41
191.08
249.44
311.25
367.61
409.35
430.12
428.45
407.83
374.63
334.98
292.22
246.02
193.58
131.91
60.21
-18.96
-99.87
-175.17
-237.88
-283.32
-310.08
-320.00
-317.19
-306.20
-290.97
-274.22
-257.70
-242.65
-229.97
-219.81
-211.01
-200.85
-185.53
-161.52
-127.12
-83.68
-35.78
9.82
46.38
69.35
77.96
75.29
66.85
58.33
53.66
53.93
57.85
63.07
67.66
70.95
73.42
75.94
78.89
81.74
83.42
83.07
80.81
78.19
77.75
82.14
93.03
110.45
132.86
157.92
183.51
208.42
232.39
255.53
277.54
297.30
313.06
323.18
326.87
324.69
318.43
310.58
303.81
300.47
302.43
310.77
325.39
344.62
365.13
382.53
392.53
392.25
381.11
360.86
334.78
306.45
278.70
253.11
230.07
209.28
190.20
172.31
155.19
138.40
121.41
103.65
84.69
64.37
42.90
20.79
-1.59
-24.41
-48.49
-74.98
-104.38
-135.67
-165.88
-190.68
-205.62
-207.67
-196.35
-174.03
-145.50
-117.07
-95.22
-85.29
-90.08
-108.85
-137.24
-168.01
-192.72
-203.59
-195.24
-165.96
-118.21
-58.35
4.47
60.24
100.81
121.91
124.11
111.99
91.69
68.33
44.33
19.46
-7.64
-37.34
-67.85
-95.46
-116.27
-128.31
-133.38
-136.11
-141.80
-153.22
-169.45
-185.92
-196.37
-195.59
-181.61
-156.56
-124.95
-91.83
-61.09
-35.91
-18.31
-8.88
-6.14
-6.66
-6.82
-3.36
5.28
19.11
34.84
47.94
54.70
53.89
46.65
32.96
13.80
-8.97
-30.76
-50.69
-69.64
-89.02
-108.37
-126.09
-145.71
-170.21
-200.54
-230.36
-258.45
-284.93
-310.22
-332.22
-348.50
-366.27
-392.36
-429.71
-468.73
-507.60
-546.82
-587.47
-626.12
-657.48
-687.86
-722.93
-764.14
-797.56
-820.04
-832.37
-837.71
-835.90
-760.33
-581.81
-318.98
-92.14
70.29
172.36
247.67
312.90
380.15
456.57
533.49
600.99
652.79
697.70
733.75
755.74
758.34
743.36
716.60
676.15
620.54
550.79
478.59
406.28
332.82
256.30
180.00
110.57
50.79
4.16
-25.15
-28.82
-8.06
30.02
74.90
117.88
152.35
171.47
171.43
152.54
121.86
86.28
52.90
27.64
15.24
17.78
33.57
58.93
89.48
121.87
151.86
175.02
187.23
185.87
170.07
140.95
101.05
53.69
2.35
-49.42
-97.73
-137.80
-164.17
-171.66
-157.26
-121.71
-70.22
-11.58
43.98
87.25
112.16
116.62
102.31
73.61
36.36
-3.48
-40.64
-71.07
-92.31
-103.38
-105.00
-99.47
-90.39
-81.98
-77.88
-79.77
-86.60
-94.85
-100.06
-98.90
-90.70
-77.51
-62.59
-48.43
-35.36
-21.77
-5.56
14.15
36.07
57.36
74.86
86.53
92.01
92.35
89.17
83.94
77.76
71.41
65.64
61.21
58.72
58.32
59.59
61.62
63.30
63.68
62.21
58.87
54.12
48.72
43.49
39.12
35.97
34.01
32.81
31.65
29.61
25.74
19.10
9.02
-4.64
-21.13
-38.52
-53.85
-63.62
-64.81
-55.89
-37.46
-12.33
15.36
41.18
61.59
74.45
79.14
76.18
66.81
52.85
36.45
20.03
5.85
-4.48
-10.39
-12.51
-12.25
-11.31
-10.96
-11.72
-13.42
-15.56
-17.78
-20.22
-23.54
-28.76
-36.84
-48.21
-62.22
-76.89
-89.03
-95.00
-91.72
-77.88
-54.61
-25.30
5.36
32.73
53.41
65.81
69.91
66.79
58.02
45.43
31.00
16.83
4.82
-3.77
-8.60
-10.41
-10.59
-10.56
-11.29
-13.01
-15.39
-17.91
-20.34
-22.96
-26.60
-32.40
-41.35
-53.66
-68.31
-82.79
-93.49
-96.65
-89.62
-71.93
-45.67
-14.99
15.18
40.50
58.26
67.62
69.23
64.61
55.57
43.97
31.67
20.38
11.51
5.79
3.11
2.63
3.14
3.55
3.26
2.18
0.54
-1.41
-3.71
-6.81
-11.49
-18.66
-28.91
-42.01
-56.44
-69.36
-77.09
-76.26
-65.04
-43.99
-16.14
13.91
41.33
62.48
75.49
80.25
77.87
70.04
58.65
45.58
32.64
21.41
12.97
7.57
4.70
3.35
2.44
1.27
-0.31
-2.01
-3.53
-4.82
-6.40
-9.21
-14.41
-22.95
-35.10
-50.06
-65.74
-78.88
-85.82
-83.47
-70.52
-48.01
-19.32
10.90
38.02
58.65
71.22
75.77
73.36
65.44
53.63
39.68
25.63
13.55
5.16
1.18
1.05
3.15
5.38
6.10
4.54
1.08
-3.31
-7.67
-11.63
-15.69
-20.94
-28.67
-39.71
-53.90
-69.71
-84.22
-93.73
-94.71
-85.05
-64.95
-37.12
-6.02
23.53
47.77
64.75
74.18
76.84
73.71
65.75
54.05
40.31
26.86
16.25
10.32
9.35
11.91
15.43
17.36
16.23
12.12
6.40
0.77
-3.65
-6.94
-10.22
-15.17
-23.28
-35.25
-50.65
-67.72
-83.57
-94.61
-97.30
-89.33
-70.49
-43.04
-11.22
19.98
46.36
65.49
76.91
81.53
80.69
75.51
66.85
55.67
43.45
32.20
23.92
19.87
19.92
22.55
25.41
26.31
24.15
19.14
12.62
6.20
0.97
-2.98
-6.51
-10.97
-17.66
-27.37
-40.16
-55.15
-70.46
-83.28
-90.25
-88.28
-75.63
-52.78
-22.65
10.11
40.58
64.95
81.43
90.16
92.47
89.85
83.53
74.33
63.19
51.50
40.98
33.30
29.38
29.03
30.93
33.17
33.92
32.08
27.56
21.05
13.73
6.58
0.15
-5.63
-11.25
-17.37
-24.67
-33.70
-44.79
-57.76
-71.57
-84.00
-91.85
-91.73
-81.35
-60.63
-32.10
-0.38
29.42
53.24
69.10
77.14
78.79
75.72
69.22
60.13
49.28
37.88
27.58
20.03
16.32
16.39
19.04
22.36
24.37
23.73
20.09
14.06
6.80
-0.50
-7.04
-12.67
-17.77
-23.02
-29.19
-36.93
-46.64
-58.33
-71.27
-83.78
-93.19
-96.30
-90.44
-74.53
-49.80
-19.70
11.04
37.92
57.91
69.98
74.86
74.11
69.36
61.83
52.44
42.08
31.94
23.45
17.89
15.92
17.18
20.33
23.46
24.73
22.99
18.16
11.07
3.06
-4.64
-11.34
-17.09
-22.45
-28.21
-35.08
-43.54
-53.73
-65.33
-77.28
-87.58
-93.44
-91.91
-80.94
-60.33
-32.32
-1.08
28.49
52.30
68.16
75.98
77.21
73.78
67.35
58.98
49.44
39.58
30.52
23.47
19.28
18.07
19.12
21.07
22.43
22.06
19.48
14.90
9.04
2.76
-3.26
-8.81
-14.04
-19.41
-25.40
-32.40
-40.72
-50.47
-61.44
-72.73
-82.44
-87.82
-85.86
-74.45
-53.47
-25.21
6.10
35.58
59.16
74.70
82.09
82.76
78.62
71.43
62.51
52.85
43.51
35.52
29.78
26.72
26.10
27.09
28.61
29.67
29.63
28.17
25.20
20.70
14.74
7.51
-0.58
-8.90
-16.80
-23.82
-29.91
-35.48
-41.37
-48.58
-57.77
-68.81
-80.23
-89.26
-92.41
-86.62
-70.48
-45.19
-14.33
17.04
44.04
63.39
74.07
76.94
73.98
67.24
58.30
48.30
38.15
28.82
21.33
16.46
14.43
14.81
16.57
18.46
19.37
18.60
15.97
11.67
6.13
-0.19
-6.88
-13.64
-20.26
-26.61
-32.64
-38.50
-44.57
-51.43
-59.60
-69.08
-78.90
-86.88
-89.95
-85.09
-70.57
-46.89
-17.03
14.31
42.20
62.89
74.78
78.32
75.37
68.08
58.30
47.38
36.34
26.17
17.90
12.38
9.97
10.37
12.65
15.53
17.68
18.09
16.20
11.99
5.91
-1.29
-8.78
-15.92
-22.33
-27.98
-33.11
-38.21
-43.93
-51.02
-59.99
-70.68
-81.75
-90.60
-93.84
-88.38
-72.74
-47.89
-17.30
14.12
41.51
61.49
72.88
76.38
73.84
67.24
58.17
47.80
37.09
27.06
18.79
13.14
10.47
10.52
12.39
14.90
16.85
17.33
15.81
12.19
6.77
0.09
-7.15
-14.30
-20.89
-26.76
-32.06
-37.26
-43.06
-50.19
-59.14
-69.66
-80.38
-88.68
-91.17
-84.72
-67.81
-41.34
-8.80
24.71
54.03
75.42
87.41
90.66
87.16
79.23
68.84
57.46
46.24
36.22
28.35
23.33
21.29
21.71
23.58
25.68
26.95
26.63
24.42
20.32
14.58
7.63
-0.02
-7.88
-15.57
-22.96
-30.19
-37.65
-45.89
-55.44
-66.47
-78.35
-89.32
-96.52
-96.65
-87.08
-67.13
-38.71
-6.02
25.64
51.55
68.91
77.24
77.81
72.66
63.64
52.13
39.23
26.15
14.42
5.64
0.89
0.23
2.59
6.06
8.65
8.94
6.55
2.08
-3.28
-8.45
-12.81
-16.51
-20.28
-25.05
-31.64
-40.53
-51.66
-64.32
-77.01
-87.37
-92.43
-89.34
-76.38
-53.84
-24.33
7.81
37.79
61.75
77.64
85.22
85.42
79.58
68.94
54.80
38.77
22.94
9.64
0.79
-2.88
-2.08
1.21
4.52
5.81
4.10
-0.27
-6.04
-11.76
-16.43
-19.98
-23.20
-27.30
-33.45
-42.34
-53.94
-67.45
-81.16
-92.49
-98.27
-95.52
-82.36
-59.04
-28.18
5.65
37.31
62.54
79.01
86.47
86.15
79.81
69.13
55.55
40.50
25.71
13.13
4.52
0.80
1.58
5.23
9.40
11.84
11.25
7.64
2.07
-3.97
-9.30
-13.65
-17.59
-22.23
-28.72
-37.81
-49.69
-63.77
-78.61
-91.76
-100.00
-99.94
-89.19
-67.39
-36.86
-2.11
31.44
59.11
78.13
87.95
89.62
84.90
75.43
62.60
47.79
32.67
19.25
9.42
4.34
3.95
6.87
10.89
13.77
13.98
11.12
5.90
-0.44
-6.63
-12.03
-16.75
-21.52
-27.35
-35.20
-45.59
-58.47
-72.84
-86.61
-96.72
-99.64
-92.41
-73.86
-45.39
-10.85
24.43
55.30
78.23
91.88
96.83
94.65
87.01
75.36
61.04
45.67
31.33
20.20
13.81
12.44
14.87
18.76
21.56
21.42
17.77
11.41
3.94
-3.05
-8.70
-13.19
-17.54
-23.20
-31.34
-42.55
-56.56
-72.24
-87.47
-99.34
-104.54
-100.13
-84.62
-58.74
-25.70
9.65
42.09
67.56
83.96
91.16
90.28
82.96
70.79
55.41
38.75
23.10
10.80
3.48
1.52
3.74
7.82
11.21
11.97
9.52
4.50
-1.60
-7.36
-12.04
-15.88
-19.97
-25.75
-34.46
-46.65
-61.82
-78.27
-93.11
-102.69
-103.42
-92.92
-70.97
-39.99
-4.55
29.98
58.85
79.15
90.05
92.31
87.42
76.98
62.56
45.94
29.33
15.17
5.58
1.53
2.51
6.54
10.94
13.26
12.13
7.59
0.86
-6.35
-12.66
-17.56
-21.58
-25.97
-32.18
-41.41
-54.13
-69.87
-86.97
-102.57
-112.86
-113.89
-102.83
-79.14
-45.25
-6.16
31.97
63.64
85.49
96.77
98.75
93.65
83.63
70.45
55.63
40.86
28.11
19.27
15.44
16.48
20.88
26.20
29.97
30.51
27.35
21.19
13.45
5.50
-1.73
-8.14
-14.19
-20.66
-28.35
-37.91
-49.69
-63.62
-78.83
-93.28
-103.75
-106.41
-98.02
-77.32
-45.98
-8.40
29.47
61.96
85.32
98.34
102.04
98.61
90.27
78.77
65.42
51.49
38.51
28.17
21.89
20.25
22.61
27.24
31.79
34.11
32.85
27.83
19.97
10.66
1.22
-7.59
-15.69
-23.51
-31.58
-40.37
-50.25
-61.53
-74.39
-88.33
-101.74
-111.57
-113.90
-105.26
-84.15
-52.09
-13.54
25.44
59.11
83.66
97.90
102.76
100.23
92.32
80.68
66.72
52.01
38.45
27.99
22.03
20.85
23.47
27.89
31.79
33.27
31.35
26.16
18.65
10.14
1.81
-5.65
-12.20
-18.29
-24.75
-32.42
-42.03
-53.83
-67.32
-80.93
-91.95
-96.94
-92.67
-77.36
-51.60
-18.53
16.86
49.20
74.27
89.96
96.29
94.74
87.37
76.09
62.54
48.26
34.88
24.07
17.17
14.73
16.27
20.30
24.80
27.82
27.97
24.77
18.67
10.64
1.87
-6.67
-14.50
-21.64
-28.55
-35.87
-44.38
-54.72
-67.11
-80.92
-94.23
-103.92
-106.21
-98.00
-78.10
-48.22
-12.69
22.80
52.96
74.39
86.16
89.26
85.57
76.97
64.85
50.47
35.28
21.22
10.30
4.04
2.82
5.64
10.46
14.91
17.06
15.97
11.87
5.80
-0.93
-7.30
-12.92
-18.07
-23.47
-29.91
-38.08
-48.37
-60.80
-74.75
-88.61
-99.68
-104.44
-99.53
-83.09
-55.79
-21.06
15.76
49.10
74.78
90.90
97.76
96.93
90.31
79.50
65.89
50.94
36.46
24.44
16.49
13.31
14.36
18.00
22.05
24.47
23.99
20.37
14.31
7.07
-0.12
-6.49
-12.05
-17.43
-23.62
-31.66
-42.21
-55.39
-70.52
-85.90
-98.75
-105.50
-102.70
-88.25
-62.50
-28.60
8.21
42.16
68.67
85.48
92.71
92.02
85.51
74.96
61.74
47.13
32.73
20.40
11.87
8.05
8.62
12.06
16.14
18.75
18.57
15.37
9.91
3.46
-2.85
-8.39
-13.24
-18.03
-23.65
-30.94
-40.50
-52.49
-66.30
-80.29
-91.76
-97.34
-93.89
-79.69
-55.34
-23.87
9.96
41.06
65.47
81.16
88.03
87.29
80.60
69.57
55.66
40.47
25.86
13.81
5.98
3.04
4.45
8.43
12.61
14.85
13.87
9.61
3.07
-4.31
-11.29
-17.31
-22.60
-28.04
-34.67
-43.42
-54.74
-68.48
-83.53
-97.69
-107.78
-110.17
-101.96
-82.07
-52.10
-16.16
20.22
51.77
74.84
88.18
92.53
89.66
81.49
69.56
55.17
39.76
25.21
13.55
6.43
4.38
6.48
10.66
14.43
15.85
14.12
9.68
3.75
-2.38
-7.93
-12.93
-18.00
-24.01
-31.68
-41.48
-53.52
-67.45
-82.17
-95.51
-104.30
-104.93
-94.61
-72.60
-40.99
-4.28
31.80
62.14
83.57
95.30
98.33
94.43
85.34
72.45
57.15
41.13
26.59
15.69
9.93
9.45
12.91
17.87
21.73
22.57
19.74
13.90
6.46
-1.04
-7.64
-13.22
-18.42
-24.26
-31.75
-41.54
-53.74
-67.81
-82.31
-94.81
-102.08
-100.75
-88.40
-64.73
-32.14
4.66
39.92
68.61
87.68
96.55
96.60
90.07
79.14
65.55
50.68
35.97
23.04
13.45
8.25
7.50
10.14
14.30
17.86
19.14
17.40
12.82
6.34
-0.92
-8.08
-14.79
-21.19
-27.77
-35.05
-43.58
-53.74
-65.71
-79.08
-92.44
-103.17
-107.76
-102.81
-86.43
-59.25
-24.74
11.77
44.62
69.49
84.39
89.59
86.82
78.29
65.97
51.51
36.46
22.46
11.28
4.26
1.97
3.87
8.35
13.33
16.85
17.62
15.24
10.18
3.27
-4.52
-12.46
-20.23
-27.76
-35.24
-42.92
-51.28
-60.85
-72.13
-85.02
-98.28
-109.24
-114.08
-109.06
-91.97
-63.42
-27.03
11.45
46.03
72.22
88.02
93.84
91.56
83.50
71.70
57.90
43.73
30.91
21.07
15.32
13.92
16.09
20.25
24.48
27.09
26.92
23.58
17.44
9.34
0.34
-8.67
-17.12
-24.94
-32.37
-39.85
-47.97
-57.37
-68.61
-81.75
-95.91
-108.77
-116.72
-115.76
-102.96
-77.85
-43.10
-3.85
33.71
64.38
85.14
95.59
97.23
92.41
83.41
72.09
59.95
48.43
38.86
32.34
29.39
29.70
32.25
35.58
38.20
38.96
37.23
32.87
26.23
17.93
8.78
-0.45
-9.16
-17.09
-24.38
-31.49
-39.12
-48.06
-58.98
-71.99
-86.25
-99.55
-108.43
-108.94
-98.00
-74.79
-41.52
-3.08
34.40
65.45
86.76
97.70
99.73
95.22
86.42
75.05
62.41
49.80
38.65
30.30
25.60
24.54
26.17
28.97
31.34
32.00
30.30
26.14
19.84
11.99
3.25
-5.76
-14.55
-22.85
-30.63
-38.10
-45.69
-54.04
-63.82
-75.39
-88.13
-100.15
-108.11
-108.11
-97.07
-74.11
-41.40
-3.74
32.83
63.00
83.57
93.91
95.38
90.22
80.55
68.03
53.98
39.80
27.09
17.46
12.06
11.08
13.63
17.93
21.85
23.61
22.20
17.62
10.65
2.43
-5.93
-13.76
-20.90
-27.64
-34.45
-41.87
-50.42
-60.58
-72.51
-85.69
-98.41
-107.63
-109.53
-100.77
-79.96
-48.61
-11.11
26.63
58.99
82.32
95.59
99.90
97.35
89.98
79.26
66.35
52.49
39.34
28.72
22.08
19.92
21.53
25.21
28.86
30.62
29.40
25.03
18.16
9.83
1.07
-7.44
-15.49
-23.28
-31.21
-39.71
-49.23
-60.14
-72.57
-86.05
-99.02
-108.66
-111.37
-103.88
-84.61
-54.75
-18.31
19.03
51.63
75.60
89.56
94.37
92.08
84.87
74.40
61.91
48.58
35.88
25.46
18.68
16.09
17.21
20.63
24.50
27.16
27.51
25.18
20.49
14.13
6.90
-0.56
-7.87
-14.92
-21.78
-28.63
-35.84
-43.99
-53.76
-65.53
-78.72
-91.26
-99.59
-99.61
-88.15
-64.53
-31.22
6.67
42.96
72.37
91.89
101.16
101.76
96.13
86.51
74.61
61.72
49.01
37.76
29.16
23.99
22.28
23.26
25.57
27.73
28.45
26.98
23.09
17.02
9.28
0.51
-8.61
-17.48
-25.67
-32.97
-39.49
-45.75
-52.62
-61.03
-71.51
-83.52
-95.00
-102.55
-102.31
-91.36
-69.07
-37.72
-2.02
32.38
60.62
79.91
89.79
91.43
86.62
77.01
63.94
48.79
33.37
19.87
10.39
6.13
6.90
11.14
16.46
20.46
21.53
19.13
13.73
6.45
-1.46
-9.08
-16.00
-22.33
-28.63
-35.66
-44.25
-55.00
-67.96
-82.24
-95.74
-105.31
-107.35
-98.97
-79.22
-49.75
-14.63
20.80
51.50
74.09
87.37
91.99
89.56
81.85
70.38
56.53
41.85
28.19
17.43
10.97
9.19
11.19
15.11
18.66
19.95
18.05
13.13
6.25
-1.24
-8.25
-14.38
-19.91
-25.57
-32.25
-40.72
-51.41
-64.32
-78.70
-92.79
-103.76
-108.12
-102.69
-85.88
-58.59
-24.30
11.81
44.43
69.65
85.73
93.05
93.22
88.18
79.49
68.28
55.60
42.76
31.37
22.98
18.55
18.05
20.36
23.69
26.12
26.25
23.52
18.24
11.24
3.46
-4.40
-12.05
-19.57
-27.19
-35.28
-44.22
-54.47
-66.37
-79.81
-93.65
-105.39
-111.42
-108.05
-92.91
-66.30
-31.46
6.17
40.73
67.71
84.98
92.81
92.90
87.32
77.79
65.58
51.92
38.37
26.69
18.53
14.79
15.28
18.70
23.06
26.33
27.01
24.52
19.14
11.82
3.61
-4.58
-12.31
-19.62
-26.82
-34.37
-42.79
-52.59
-64.08
-77.06
-90.27
-101.12
-106.07
-101.67
-85.90
-59.36
-25.43
10.60
43.21
68.27
83.95
90.58
89.82
83.61
73.61
61.13
47.44
34.08
22.76
14.96
11.49
12.06
15.39
19.61
22.86
23.80
21.90
17.36
10.85
3.18
-4.93
-12.98
-20.73
-28.13
-35.32
-42.71
-50.96
-60.77
-72.43
-85.25
-97.14
-104.80
-104.47
-93.38
-70.97
-39.52
-3.67
30.95
59.48
79.02
89.00
90.54
85.54
75.85
63.05
48.61
34.20
21.67
12.71
8.34
8.46
11.88
16.67
20.77
22.62
21.40
17.19
10.68
2.86
-5.33
-13.25
-20.65
-27.65
-34.73
-42.58
-51.87
-63.09
-76.00
-89.30
-100.41
-105.84
-102.17
-87.31
-61.59
-28.03
8.31
41.92
68.39
85.54
93.48
93.82
88.67
79.74
68.31
55.42
42.35
30.72
22.15
17.72
17.51
20.46
24.69
28.18
29.32
27.34
22.38
15.19
6.74
-2.09
-10.75
-19.04
-27.02
-34.95
-43.27
-52.59
-63.47
-76.00
-89.25
-100.92
-107.58
-105.54
-92.31
-67.73
-34.49
2.52
37.68
66.27
85.69
95.55
97.11
92.24
82.75
70.14
55.89
41.73
29.61
21.26
17.61
18.36
21.94
26.07
28.57
28.01
24.12
17.67
9.94
2.12
-5.09
-11.70
-18.27
-25.56
-34.27
-44.81
-57.24
-71.03
-84.96
-96.88
-103.90
-102.95
-91.87
-70.43
-40.83
-7.33
24.99
51.75
70.42
80.55
83.24
80.14
72.68
61.92
48.86
34.89
21.93
12.04
6.72
6.25
9.47
14.17
17.92
18.93
16.62
11.59
5.13
-1.52
-7.67
-13.35
-19.15
-25.76
-33.73
-43.34
-54.57
-66.97
-79.36
-89.60
-94.78
-91.81
-78.64
-55.35
-24.57
9.10
40.43
65.15
81.02
87.88
86.98
80.08
68.75
54.38
38.49
23.04
10.19
1.84
-1.19
0.45
4.82
9.37
11.86
11.14
7.33
1.51
-4.89
-10.78
-15.78
-20.28
-25.13
-31.32
-39.66
-50.53
-63.69
-78.04
-91.44
-100.83
-102.83
-94.75
-75.67
-47.14
-12.96
21.78
52.22
74.98
88.73
93.97
92.19
85.14
74.36
61.24
47.29
34.26
24.00
17.85
16.25
18.33
22.21
25.57
26.43
23.88
18.17
10.54
2.49
-4.80
-10.99
-16.50
-22.24
-29.23
-38.19
-49.44
-62.77
-77.26
-91.04
-101.28
-104.58
-97.95
-79.97
-51.75
-16.96
19.08
50.96
74.80
89.03
94.25
92.33
85.41
75.23
63.08
50.12
37.66
27.20
20.00
16.68
16.87
19.30
22.20
23.84
23.12
19.67
13.91
6.69
-1.08
-8.68
-15.81
-22.55
-29.28
-36.50
-44.74
-54.45
-65.77
-78.27
-90.44
-99.69
-102.65
-96.25
-78.97
-51.80
-18.30
16.32
46.84
69.55
82.98
87.73
85.56
78.37
67.72
54.81
40.93
27.65
16.82
9.91
7.61
9.38
13.62
18.24
21.31
21.64
19.03
14.06
7.69
0.80
-6.02
-12.65
-19.18
-25.89
-33.10
-41.22
-50.68
-61.72
-73.90
-85.71
-94.39
-96.49
-88.99
-70.62
-42.76
-9.29
24.46
53.42
74.21
85.72
88.77
85.10
76.54
64.56
50.47
35.79
22.39
12.17
6.49
5.69
8.78
13.85
18.66
21.38
20.97
17.45
11.57
4.38
-3.12
-10.26
-16.86
-23.09
-29.32
-36.08
-43.96
-53.46
-64.73
-77.12
-88.81
-96.81
-97.68
-88.57
-68.60
-39.48
-5.34
28.50
57.11
77.34
88.31
91.06
87.49
79.55
68.76
56.27
43.24
31.08
21.35
15.30
13.45
15.29
19.36
23.70
26.45
26.42
23.29
17.55
10.23
2.40
-5.16
-12.14
-18.68
-25.21
-32.34
-40.70
-50.78
-62.68
-75.64
-87.71
-95.87
-96.66
-87.36
-67.24
-38.16
-4.32
28.98
56.97
76.60
87.07
89.35
85.27
76.66
65.01
51.51
37.50
24.54
14.31
8.10
6.32
8.21
12.06
15.78
17.65
16.77
13.29
8.11
2.30
-3.34
-8.62
-13.89
-19.81
-27.02
-35.90
-46.57
-58.76
-71.66
-83.62
-92.20
-94.42
-87.73
-71.03
-45.46
-14.35
17.61
45.78
66.90
79.57
84.05
81.52
73.40
61.06
46.04
30.24
15.91
5.17
-0.70
-1.73
0.68
4.34
7.10
7.59
5.56
1.68
-2.99
-7.59
-11.81
-16.03
-21.01
-27.62
-36.51
-47.86
-61.17
-74.97
-86.84
-93.69
-92.41
-81.03
-59.52
-30.23
2.64
34.20
60.31
78.46
88.00
89.61
84.55
74.15
59.78
43.17
26.54
12.35
2.72
-1.39
-0.51
3.44
7.91
10.63
10.33
6.96
1.47
-4.85
-10.99
-16.52
-21.72
-27.28
-34.07
-42.82
-53.93
-67.18
-81.38
-94.21
-102.41
-102.63
-92.45
-71.60
-42.32
-8.92
23.57
50.78
70.16
81.08
84.23
80.86
72.20
59.50
44.31
28.73
15.24
6.03
2.25
3.53
8.09
13.34
16.95
17.51
14.87
9.91
3.92
-2.09
-7.77
-13.49
-20.03
-28.22
-38.62
-51.35
-65.80
-80.55
-93.21
-100.70
-99.97
-89.03
-67.88
-38.83
-6.06
25.65
52.20
71.18
81.95
85.17
82.03
73.69
61.32
46.40
30.93
17.30
7.71
3.37
4.11
8.29
13.43
17.13
17.85
15.33
10.45
4.58
-1.08
-6.13
-10.93
-16.44
-23.69
-33.42
-45.73
-60.04
-74.86
-87.84
-95.97
-96.27
-86.60
-66.73
-38.66
-6.35
25.40
52.34
71.79
82.90
86.24
82.95
74.28
61.51
46.20
30.44
16.68
7.11
2.92
3.77
7.88
12.65
15.63
15.32
11.60
5.52
-1.37
-7.77
-13.15
-17.93
-23.13
-29.95
-39.24
-51.25
-65.41
-80.30
-93.57
-102.23
-103.23
-94.26
-74.79
-46.53
-13.26
20.14
49.13
70.59
83.43
88.13
86.05
78.67
67.32
53.41
38.69
25.29
15.36
10.35
10.39
14.12
19.17
22.94
23.62
20.66
14.80
7.53
0.24
-6.26
-12.14
-18.23
-25.71
-35.55
-48.22
-63.43
-79.88
-95.15
-105.92
-108.64
-100.59
-81.05
-51.89
-17.28
17.48
47.61
70.04
83.89
89.89
89.51
84.13
74.87
62.74
49.23
36.32
26.16
20.37
19.39
22.20
26.72
30.51
31.64
29.31
23.89
16.54
8.54
0.79
-6.52
-13.81
-21.76
-31.03
-42.08
-55.02
-69.49
-84.41
-97.74
-106.50
-107.38
-97.83
-77.14
-47.24
-12.28
22.38
51.93
73.27
85.52
89.59
87.23
80.29
70.25
58.42
46.15
34.97
26.43
21.62
20.78
23.12
27.04
30.63
32.20
30.83
26.47
19.80
11.90
3.73
-4.12
-11.56
-18.83
-26.40
-34.77
-44.41
-55.65
-68.38
-81.58
-93.02
-99.46
-97.47
-84.61
-60.79
-28.58
7.22
41.08
68.39
86.57
95.25
95.73
89.97
79.93
67.31
53.71
40.75
30.05
22.87
19.72
20.22
23.14
26.83
29.66
30.41
28.46
23.81
16.94
8.63
-0.25
-9.04
-17.31
-25.02
-32.35
-39.76
-47.84
-57.29
-68.56
-81.38
-94.24
-104.19
-107.43
-100.50
-81.77
-52.42
-16.45
20.48
52.85
76.95
91.51
97.44
96.67
91.20
82.43
71.37
59.08
46.98
36.78
30.04
27.52
28.79
32.35
36.10
38.08
37.07
32.81
25.91
17.41
8.34
-0.56
-8.94
-16.80
-24.34
-31.90
-40.05
-49.50
-60.79
-73.79
-87.15
-98.06
-102.79
-97.81
-81.25
-53.99
-19.62
16.48
48.89
73.61
88.97
95.36
94.42
88.11
78.17
66.09
53.36
41.58
32.26
26.43
24.27
25.07
27.51
30.15
31.87
32.00
30.31
26.75
21.34
14.14
5.41
-4.32
-14.28
-23.64
-31.77
-38.51
-44.34
-50.22
-57.39
-66.72
-78.17
-90.19
-99.77
-103.06
-96.61
-78.78
-50.67
-16.07
19.58
50.86
73.90
87.16
91.28
88.20
80.14
68.99
56.22
43.06
30.81
20.83
14.26
11.67
12.73
16.33
20.84
24.58
26.18
24.89
20.64
14.01
5.90
-2.68
-10.89
-18.30
-24.78
-30.59
-36.21
-42.31
-49.64
-58.70
-69.23
-79.78
-87.63
-89.28
-81.71
-63.65
-36.41
-3.79
29.04
57.13
77.05
87.53
89.19
83.77
73.37
59.99
45.48
31.51
19.66
11.12
6.48
5.58
7.57
11.17
15.04
18.01
19.26
18.25
14.84
9.18
1.76
-6.76
-15.59
-24.03
-31.56
-38.06
-43.72
-49.20
-55.48
-63.58
-73.97
-85.91
-97.05
-103.67
-101.77
-88.56
-63.85
-30.51
6.35
40.91
68.43
86.43
94.77
94.93
89.05
79.15
66.90
53.79
41.29
30.80
23.41
19.58
19.04
20.87
23.83
26.63
28.24
27.92
25.28
20.28
13.18
4.54
-4.87
-14.27
-23.02
-30.75
-37.48
-43.69
-50.22
-58.03
-67.72
-78.99
-90.18
-98.23
-99.50
-90.93
-71.36
-42.33
-7.90
26.56
55.92
76.74
87.82
89.97
85.12
75.42
62.79
48.86
35.16
23.18
14.26
9.19
7.95
9.66
12.83
15.87
17.51
17.05
14.43
9.94
4.07
-2.73
-10.11
-17.80
-25.55
-33.11
-40.23
-46.86
-53.34
-60.43
-69.00
-79.42
-90.81
-100.68
-105.35
-101.21
-86.10
-60.56
-27.92
6.70
38.01
62.07
77.10
83.27
81.95
74.86
63.59
49.65
34.71
20.68
9.50
2.62
0.60
2.84
7.80
13.48
18.01
20.12
19.39
16.13
11.09
5.11
-1.17
-7.44
-13.73
-20.29
-27.51
-35.87
-45.83
-57.52
-70.35
-82.60
-91.40
-93.35
-85.55
-66.93
-38.97
-5.55
28.06
56.87
77.42
88.50
90.76
85.94
75.95
62.50
47.10
31.31
16.94
5.79
-0.85
-2.63
-0.34
4.31
9.26
12.75
13.74
12.01
8.02
2.45
-3.98
-10.80
-17.78
-24.88
-32.21
-40.00
-48.68
-58.77
-70.53
-83.48
-95.89
-104.75
-106.36
-97.67
-77.56
-47.59
-11.89
24.06
55.06
77.58
90.31
93.87
89.99
80.68
67.80
52.99
37.84
24.04
13.18
6.45
4.24
5.92
10.02
14.53
17.59
17.90
15.05
9.48
2.11
-6.01
-14.09
-21.74
-28.99
-36.17
-43.78
-52.45
-62.74
-74.78
-87.77
-99.68
-107.27
-106.98
-96.05
-73.81
-42.34
-6.07
29.52
59.41
80.43
91.73
94.27
90.00
80.91
68.70
54.72
40.36
27.20
16.88
10.67
9.02
11.35
16.11
21.31
25.13
26.44
24.95
21.11
15.68
9.39
2.76
-3.93
-10.56
-17.13
-23.69
-30.45
-37.85
-46.22
-55.32
-63.84
-69.30
-68.44
-58.34
-37.62
-7.34
29.09
66.80
100.91
127.81
145.90
155.27
156.98
152.31
142.26
127.69
109.66
89.74
69.99
52.64
39.50
31.28
27.49
26.35
25.51
22.67
16.35
6.15
-7.25
-22.65
-38.87
-55.21
-71.65
-88.71
-107.14
-127.51
-149.93
-173.76
-197.44
-218.42
-233.57
-239.88
-235.56
-220.90
-198.65
-173.45
-150.54
-134.24
-126.89
-128.56
-137.76
-152.41
-170.66
-191.17
-212.79
-233.97
-252.60
-266.19
-272.52
-270.36
-259.75
-241.91
-218.77
-192.53
-165.48
-140.05
-118.84
-104.26
-97.92
-99.78
-107.89
-118.77
-128.43
-133.65
-132.86
-126.08
-114.34
-98.97
-81.11
-61.73
-41.98
-23.31
-7.02
6.21
16.79
26.19
36.21
48.33
63.36
81.76
103.79
129.17
156.02
180.04
195.05
195.23
178.17
147.02
110.18
78.30
60.25
60.14
76.93
106.51
144.21
186.19
228.69
266.61
292.85
300.00
283.57
245.13
193.12
140.47
100.23
80.96
84.12
104.61
133.70
162.91
186.79
203.62
214.23
219.93
221.04
216.80
206.41
190.50
171.73
154.01
140.82
133.53
130.61
128.45
123.04
111.91
95.16
75.13
55.12
37.79
24.18
13.49
3.75
-7.30
-21.32
-38.77
-58.62
-78.24
-93.78
-101.03
-96.62
-79.26
-50.36
-13.86
25.00
61.07
90.51
111.17
122.34
124.19
117.39
103.24
84.02
62.97
43.81
29.72
22.27
20.87
23.07
25.57
25.64
22.05
15.32
7.13
-0.76
-7.41
-13.24
-19.77
-29.08
-42.90
-61.94
-85.35
-110.43
-132.89
-147.62
-150.01
-137.47
-110.45
-72.61
-29.82
11.56
46.43
71.86
87.13
92.91
90.52
81.48
67.67
51.54
36.06
24.07
17.39
16.07
18.33
21.29
22.19
19.47
13.25
5.05
-3.15
-9.94
-15.22
-20.20
-26.96
-37.70
-53.87
-75.42
-100.34
-124.63
-142.90
-149.70
-141.16
-116.44
-78.34
-32.60
13.86
54.92
86.75
108.08
119.57
122.58
118.45
108.34
93.68
76.71
60.40
47.77
40.83
39.70
42.44
45.79
46.50
42.62
34.17
22.91
11.33
1.48
-6.00
-12.00
-18.53
-27.90
-41.96
-61.43
-85.48
-111.41
-134.80
-150.19
-152.38
-138.20
-107.87
-65.31
-17.10
29.51
68.77
97.62
115.74
124.45
125.49
120.22
109.70
95.24
78.90
63.45
51.69
45.42
44.68
47.67
51.40
52.85
50.18
43.29
33.74
23.80
15.39
9.21
4.53
-0.47
-7.94
-19.69
-36.64
-58.53
-83.54
-108.15
-127.45
-136.09
-129.84
-107.13
-70.10
-24.24
23.14
65.14
97.11
117.35
126.73
127.35
121.46
110.77
96.69
80.78
65.01
51.62
42.45
38.20
38.01
39.71
40.57
38.30
31.87
21.76
9.50
-3.04
-14.48
-24.45
-33.55
-42.99
-54.14
-68.10
-85.47
-106.04
-128.48
-149.98
-166.38
-172.92
-165.68
-143.18
-107.36
-63.38
-18.09
22.00
52.56
72.05
81.25
82.05
76.33
65.61
51.29
35.09
19.40
6.76
-0.81
-2.67
0.14
5.21
9.66
11.10
8.43
2.03
-6.65
-15.82
-24.12
-31.08
-37.20
-43.60
-51.64
-62.50
-76.90
-94.73
-114.69
-133.92
-148.17
-152.57
-143.18
-118.53
-80.71
-35.01
11.46
52.02
82.21
100.63
108.38
107.88
101.59
91.41
78.74
65.00
51.92
41.39
34.98
33.24
35.38
39.36
42.65
43.03
39.33
31.75
21.55
10.46
-0.06
-9.31
-17.45
-25.23
-33.68
-43.73
-56.14
-71.43
-89.57
-109.52
-128.64
-142.74
-146.88
-136.97
-111.50
-72.65
-25.94
21.29
62.20
92.29
110.10
116.79
114.90
107.08
95.51
81.86
67.63
54.41
43.80
37.02
34.46
35.51
38.64
41.88
43.40
42.02
37.49
30.37
21.65
12.37
3.21
-5.63
-14.29
-23.11
-32.44
-42.71
-54.56
-68.70
-85.40
-103.70
-120.75
-131.94
-132.08
-117.38
-87.28
-45.23
2.12
47.03
83.10
106.88
118.20
119.08
112.37
100.62
85.71
69.20
52.74
38.20
27.32
21.26
19.98
22.23
25.90
28.59
28.44
24.58
17.23
7.51
-3.17
-13.58
-23.11
-31.77
-40.08
-48.83
-58.91
-71.18
-86.26
-104.04
-123.09
-140.32
-151.28
-151.37
-137.53
-109.77
-71.58
-29.07
10.92
42.88
63.96
73.93
74.37
67.45
55.15
39.18
21.33
3.75
-11.15
-21.21
-25.37
-24.00
-18.96
-12.89
-8.41
-7.22
-9.69
-14.95
-21.43
-27.65
-32.79
-36.99
-41.19
-46.77
-55.07
-67.00
-82.73
-101.19
-119.87
-134.78
-141.14
-134.73
-113.46
-78.53
-34.39
12.44
55.34
89.39
112.29
124.07
126.06
119.95
107.27
89.65
69.25
48.92
31.74
20.20
15.28
16.05
19.99
23.96
25.27
22.60
16.14
7.32
-2.02
-10.41
-17.29
-23.09
-29.05
-36.82
-47.97
-63.54
-83.38
-105.63
-126.52
-140.83
-143.28
-130.23
-101.26
-59.82
-12.30
33.80
72.13
99.00
113.78
118.00
114.10
104.32
90.43
73.98
56.73
40.84
28.51
21.28
19.43
21.79
26.14
29.99
31.38
29.43
24.36
17.16
9.05
1.01
-6.53
-13.70
-21.11
-29.64
-40.31
-54.00
-70.99
-90.36
-109.46
-123.97
-128.76
-119.59
-94.80
-56.45
-10.01
37.26
78.49
109.15
127.64
134.85
132.81
123.65
109.14
90.95
71.10
52.17
36.85
27.12
23.48
24.65
28.00
30.48
29.73
24.87
16.61
6.76
-2.71
-10.57
-16.78
-22.42
-29.11
-38.48
-51.56
-68.51
-88.37
-108.82
-126.28
-136.30
-134.72
-119.07
-89.83
-50.74
-7.90
31.98
63.60
84.19
93.55
93.16
85.00
70.95
52.68
32.11
11.68
-5.82
-17.98
-23.54
-22.93
-18.24
-12.40
-8.25
-7.53
-10.52
-16.19
-22.87
-29.15
-34.46
-39.31
-44.92
-52.85
-64.37
-79.98
-99.04
-119.33
-137.08
-147.44
-145.70
-128.88
-97.12
-54.10
-6.18
39.49
76.99
103.06
117.17
120.64
115.50
103.64
86.79
66.89
46.48
28.52
15.69
9.54
9.79
14.37
20.12
23.93
23.78
19.31
11.64
2.65
-5.90
-13.18
-19.47
-25.86
-33.82
-44.70
-59.38
-77.98
-99.39
-120.97
-138.40
-146.47
-140.56
-118.36
-81.27
-34.33
15.08
59.57
93.81
115.53
125.22
124.99
117.21
103.85
86.54
67.11
47.83
31.35
19.99
14.94
15.79
20.49
26.10
29.72
29.43
24.79
16.77
7.09
-2.53
-11.07
-18.49
-25.63
-33.74
-44.17
-57.96
-75.51
-96.16
-117.73
-136.35
-147.00
-144.79
-126.70
-93.03
-47.79
2.26
49.67
88.36
115.08
129.42
132.99
128.15
117.14
101.85
84.13
66.06
49.92
37.81
31.00
29.50
32.06
36.53
40.52
42.10
40.22
34.85
26.84
17.47
7.88
-1.18
-9.63
-17.93
-26.84
-37.28
-50.15
-66.04
-84.73
-104.72
-122.68
-133.88
-133.31
-117.51
-86.30
-43.40
4.44
49.48
85.36
108.73
119.41
119.38
111.27
97.41
79.55
59.38
38.99
20.94
7.72
0.80
-0.03
3.36
8.03
11.02
10.36
5.58
-2.37
-11.76
-20.94
-28.91
-35.68
-42.02
-49.16
-58.30
-70.36
-85.61
-103.42
-121.76
-137.14
-145.03
-141.01
-122.45
-89.77
-46.91
-0.34
42.89
77.15
99.59
110.08
110.33
102.62
89.07
71.55
52.05
32.99
17.03
6.46
2.33
4.02
9.33
15.26
18.99
18.83
14.62
7.50
-0.74
-8.55
-15.15
-20.82
-26.64
-34.11
-44.69
-59.29
-77.93
-99.14
-119.81
-135.28
-140.37
-130.95
-105.54
-66.29
-18.68
30.02
72.91
105.26
125.13
133.09
131.04
121.25
105.72
86.42
65.48
45.41
28.77
17.56
12.61
13.24
17.41
22.34
25.34
24.69
20.01
12.20
2.87
-6.40
-14.69
-22.00
-29.11
-37.15
-47.32
-60.54
-77.21
-96.72
-116.97
-134.17
-143.29
-139.47
-119.77
-84.75
-38.73
11.23
57.54
94.22
118.31
129.87
130.93
