1537885512.00
64.000000
-0.00
-0.00
-0.00
-0.00
-0.00
-0.00
-0.00
-0.00
-0.00
-0.00
0.00
0.01
0.01
-0.00
-0.03
-0.05
-0.05
0.00
0.13
0.36
0.66
1.01
1.37
1.72
2.06
2.40
2.79
3.24
3.80
4.42
5.06
5.66
6.20
6.68
7.15
7.68
8.31
9.14
10.09
11.04
11.88
12.56
13.14
13.76
14.65
15.96
17.91
20.32
22.90
25.38
27.58
29.57
31.68
34.32
37.81
42.54
48.15
54.10
59.83
64.97
69.58
74.14
79.34
85.71
93.76
103.00
112.62
121.73
129.77
136.75
143.30
150.75
157.77
166.64
177.95
191.79
206.97
220.57
228.25
225.36
208.53
176.87
132.76
80.05
23.07
-34.94
-92.44
-149.16
-205.23
-260.37
-313.74
-363.87
-409.83
-450.91
-486.50
-515.74
-537.23
-549.22
-549.96
-538.37
-514.21
-478.67
-433.88
-382.45
-327.02
-269.84
-212.63
-156.66
-102.95
-52.37
-5.90
35.58
71.43
101.35
125.50
144.38
158.69
169.15
176.37
180.75
182.57
182.07
179.51
175.23
169.65
163.18
156.15
148.81
141.30
133.69
126.02
118.33
110.69
103.16
95.80
88.68
81.83
75.25
68.95
62.95
57.25
51.86
46.78
42.03
37.59
33.45
29.61
26.07
22.81
19.82
17.11
14.67
12.48
10.55
8.85
7.36
6.07
4.96
4.00
3.17
2.47
1.88
1.38
0.97
0.62
0.35
0.14
-0.01
-0.12
-0.21
-0.29
-0.38
-0.47
-0.57
-0.66
-0.74
-0.81
-0.87
-0.93
-1.00
-1.09
-1.20
-1.32
-1.45
-1.59
-1.75
-1.92
-2.13
-2.38
-2.69
-3.04
-3.41
-3.76
-4.08
-4.36
-4.66
-5.02
-5.50
-6.12
-6.85
-7.57
-8.19
-8.64
-8.95
-9.23
-9.66
-10.38
-11.43
-12.68
-13.85
-14.66
-15.03
-15.12
-15.35
-16.21
-17.78
-19.67
-20.94
-20.48
-17.51
-11.86
-3.86
5.95
17.04
28.87
40.52
50.51
57.03
58.70
55.35
48.44
40.57
34.38
31.44
31.69
33.74
35.86
36.79
35.98
33.53
29.83
25.14
19.61
13.51
7.46
2.32
-1.24
-2.99
-3.52
-3.92
-5.37
-8.36
-12.41
-16.23
-18.34
-17.90
-15.17
-11.58
-9.24
-10.08
-15.18
-24.13
-35.18
-45.57
-52.51
-54.01
-49.51
-40.08
-27.78
-14.70
-2.00
10.21
22.38
34.50
45.51
53.71
57.57
56.69
51.99
45.25
37.99
30.85
23.40
14.86
4.98
-5.63
-15.71
-23.68
-28.13
-28.05
-22.86
-12.57
2.11
19.96
39.33
58.73
77.28
94.77
111.12
125.74
137.21
142.20
138.29
124.74
103.28
77.92
53.80
35.52
25.48
22.89
24.01
23.61
16.43
-1.12
-30.18
-69.48
-115.88
-165.13
-212.56
-253.57
-284.22
-302.12
-306.86
-299.99
-284.21
-262.35
-236.47
-207.74
-177.01
-145.30
-114.22
-85.43
-59.73
-36.60
-14.52
7.89
30.68
52.06
68.86
77.69
76.33
64.59
44.45
19.47
-6.17
-28.86
-46.26
-57.80
-64.44
-68.11
-70.98
-74.65
-79.74
-85.79
-91.61
-95.84
-97.51
-96.25
-92.26
-86.02
-77.94
-68.19
-56.71
-43.34
-27.92
-10.32
9.50
31.58
55.81
81.86
109.01
136.20
162.08
185.21
204.05
217.02
222.63
219.86
208.68
190.43
167.76
144.12
122.82
106.08
94.45
86.93
81.52
76.28
70.08
63.10
56.54
51.89
50.04
50.62
51.96
51.62
47.45
38.42
24.96
8.68
-8.47
-24.98
-40.00
-52.98
-63.25
-69.66
-71.13
-67.38
-59.49
-49.61
-39.99
-31.71
-24.19
-15.74
-4.91
8.23
21.75
32.76
38.88
39.41
35.58
29.75
24.15
19.94
16.92
14.01
10.09
4.62
-1.92
-8.36
-13.38
-16.26
-17.19
-17.17
-17.52
-19.14
-22.18
-26.11
-30.21
-34.01
-37.52
-41.09
-44.86
-48.59
-51.49
-52.70
-51.67
-48.56
-44.23
-39.99
-37.05
-35.93
-36.13
-36.19
-34.21
-28.63
-19.02
-6.35
7.23
19.23
27.60
31.29
30.23
24.96
16.18
4.65
-8.61
-21.94
-33.10
-39.79
-40.50
-35.33
-26.07
-15.70
-7.27
-2.92
-3.34
-7.97
-15.59
-24.90
-34.82
-44.36
-52.47
-57.96
-59.69
-57.03
-50.22
-40.37
-29.23
-18.65
-10.10
-4.38
-1.63
-1.42
-2.97
-5.19
-6.82
-6.67
-3.96
1.38
8.50
15.88
21.85
25.15
25.45
23.28
19.81
16.42
14.36
14.47
17.17
22.29
29.13
36.50
43.07
47.64
49.56
48.82
45.97
41.85
37.23
32.59
28.00
23.30
18.38
13.44
9.11
6.34
6.03
8.68
14.14
21.55
29.57
36.72
41.78
44.10
43.86
42.10
40.43
40.48
43.19
48.34
54.49
59.66
62.24
61.79
59.21
56.23
54.62
55.38
58.45
62.92
67.54
71.21
73.30
73.63
72.33
69.64
65.81
61.07
55.74
50.25
45.11
40.73
37.22
34.30
31.34
27.66
22.95
17.47
12.04
7.61
4.74
3.17
1.82
-0.75
-5.66
-13.18
-22.53
-32.16
-40.32
-45.70
-47.75
-46.78
-43.73
-39.81
-36.16
-33.59
-32.41
-32.34
-32.58
-32.00
-29.44
-24.09
-15.85
-5.35
6.11
17.03
26.21
33.25
38.64
43.61
49.61
57.60
67.48
77.78
85.69
87.84
81.38
65.18
40.65
11.59
-16.84
-39.79
-54.32
-60.04
-58.79
-53.48
-46.82
-40.53
-35.27
-31.11
-28.02
-26.06
-25.23
-25.20
-25.30
-24.71
-22.88
-19.78
-15.94
-12.10
-8.93
-6.71
-5.30
-4.42
-3.85
-3.63
-4.05
-5.46
-8.03
-11.62
-15.72
-19.68
-22.83
-24.79
-25.57
-25.56
-25.43
-25.92
-27.58
-30.63
-34.92
-40.00
-45.17
-49.49
-51.90
-51.24
-46.61
-37.74
-25.41
-11.43
1.84
12.20
18.42
20.60
19.95
18.24
17.10
17.57
20.02
24.22
29.58
35.27
40.31
43.66
44.46
42.33
37.53
30.89
23.58
16.70
11.02
6.91
4.39
3.34
3.46
4.31
5.18
5.14
3.26
-1.17
-8.29
-17.67
-28.40
-39.39
-49.47
-57.52
-62.39
-63.01
-58.69
-49.56
-36.79
-22.55
-9.36
0.73
6.76
9.11
9.11
8.46
8.55
10.17
13.50
18.27
23.85
29.32
33.62
35.71
34.97
31.55
26.37
20.89
16.52
14.02
13.34
13.79
14.47
14.74
14.42
13.58
12.20
9.92
6.11
0.20
-7.96
-17.92
-28.75
-39.37
-48.81
-56.37
-61.43
-63.34
-61.38
-55.12
-44.77
-31.51
-17.41
-4.81
4.36
9.26
10.36
9.06
7.12
6.00
6.52
8.84
12.75
17.91
23.96
30.36
36.25
40.51
42.05
40.37
35.88
29.92
24.26
20.41
18.98
19.60
21.28
22.98
24.14
24.61
24.34
22.82
19.10
12.07
1.15
-13.25
-29.76
-46.54
-61.87
-74.50
-83.55
-88.25
-87.76
-81.42
-69.35
-52.90
-34.72
-18.05
-5.71
0.78
1.70
-1.21
-5.48
-8.81
-9.68
-7.55
-2.77
3.83
11.34
18.83
25.50
30.60
33.52
33.95
32.12
28.90
25.54
23.30
22.98
24.66
27.86
31.92
36.39
41.10
45.95
50.57
54.10
55.47
53.91
49.43
42.94
35.84
29.44
24.45
20.99
18.99
18.67
20.69
25.74
33.89
44.12
54.35
62.22
66.16
66.12
63.64
61.04
60.24
61.82
64.74
66.98
66.45
61.92
53.22
41.10
26.51
10.18
-7.52
-26.28
-45.48
-64.07
-80.72
-94.33
-104.37
-111.04
-115.01
-116.97
-117.51
-117.07
-116.24
-115.90
-117.06
-120.41
-125.92
-132.70
-139.35
-144.52
-147.39
-147.78
-145.84
-141.61
-134.78
-124.92
-111.95
-96.53
-80.11
-64.55
-51.39
-41.34
-34.10
-28.61
-23.63
-18.29
-12.37
-6.32
-0.93
3.15
5.60
6.67
7.02
7.56
9.13
12.33
17.32
23.84
31.21
38.46
44.50
48.33
49.24
47.03
42.05
35.24
27.84
21.13
15.98
12.64
10.69
9.30
7.58
5.01
1.62
-1.94
-4.68
-5.49
-3.60
1.21
8.55
17.49
26.86
35.61
43.00
48.73
52.83
55.51
56.95
57.35
56.82
55.49
53.49
50.89
47.74
44.14
40.35
36.80
34.02
32.35
31.80
31.89
31.84
30.90
28.60
24.98
20.52
15.88
11.71
8.41
6.04
4.35
2.82
0.87
-1.99
-5.88
-10.33
-14.41
-16.92
-16.83
-13.66
-7.58
0.77
10.68
21.78
33.97
47.26
61.38
75.47
88.08
97.38
101.58
99.42
90.50
75.59
56.38
35.03
13.43
-7.42
-27.47
-47.27
-67.02
-85.94
-102.15
-113.36
-117.94
-115.85
-108.73
-99.23
-89.99
-82.79
-78.32
-76.50
-77.00
-79.53
-83.86
-89.64
-96.25
-102.95
-109.13
-114.43
-118.77
-122.11
-124.17
-124.27
-121.47
-114.71
-103.10
-86.15
-63.98
-37.40
-8.03
21.88
49.86
73.62
91.58
103.15
108.68
109.31
106.60
102.17
97.47
93.53
90.90
89.68
89.59
90.16
90.84
91.08
90.39
88.32
84.47
78.65
70.96
61.86
52.17
42.90
34.97
28.95
24.86
22.05
19.33
15.38
9.16
0.40
-10.25
-21.35
-31.11
-38.04
-41.29
-40.90
-37.47
-31.91
-25.07
-17.69
-10.46
-4.06
0.92
4.17
5.76
6.21
6.16
6.13
6.28
6.40
6.13
5.26
3.87
2.38
1.40
1.43
2.64
4.70
6.83
8.04
7.50
4.86
0.45
-4.87
-9.96
-13.87
-16.17
-17.01
-17.06
-17.14
-18.05
-20.26
-23.75
-28.04
-32.27
-35.51
-36.98
-36.42
-34.01
-30.24
-25.55
-20.01
-13.30
-4.92
5.43
17.53
30.64
43.57
55.23
64.81
72.09
77.33
81.05
83.86
86.31
88.72
91.12
93.13
93.94
92.50
87.82
79.47
67.78
53.81
39.02
24.77
11.93
0.82
-8.63
-16.69
-23.53
-29.31
-34.25
-38.78
-43.48
-48.98
-55.61
-63.22
-71.03
-77.83
-82.29
-83.43
-80.91
-75.06
-66.70
-56.76
-46.00
-34.94
-23.98
-13.65
-4.66
2.28
6.72
8.72
8.91
8.18
7.39
7.11
7.58
8.71
10.32
12.14
13.84
15.09
15.64
15.41
14.58
13.45
12.28
11.07
9.58
7.47
4.53
0.87
-3.23
-7.40
-11.48
-15.43
-19.28
-22.93
-26.07
-28.39
-29.83
-30.75
-31.83
-33.73
-36.69
-40.25
-43.35
-44.75
-43.53
-39.41
-32.83
-24.63
-15.67
-6.54
2.49
11.22
19.38
26.47
31.93
35.38
36.85
36.75
35.70
34.30
32.85
31.47
30.13
28.92
28.00
27.55
27.62
28.02
28.49
28.76
28.74
28.47
28.00
27.29
26.23
24.72
22.79
20.64
18.58
16.90
15.71
15.01
14.69
14.57
14.41
13.79
12.20
9.15
4.44
-1.62
-8.25
-14.35
-18.87
-21.17
-21.11
-19.02
-15.51
-11.16
-6.40
-1.50
3.30
7.61
10.79
12.11
10.87
6.65
-0.41
-9.54
-19.41
-28.51
-35.50
-39.63
-40.81
-39.44
-36.01
-30.78
-23.82
-15.15
-5.22
5.01
14.23
21.26
25.51
27.19
27.07
25.90
24.10
21.78
18.99
16.14
14.05
13.62
15.28
18.62
22.35
24.93
25.18
22.95
19.25
15.94
15.02
17.89
24.79
34.75
46.42
58.37
69.58
79.70
88.98
97.90
106.62
114.55
120.28
122.09
117.87
105.42
82.97
50.04
8.09
-39.48
-88.36
-134.83
-176.22
-212.40
-245.65
-279.39
-316.45
-357.56
-401.10
-444.04
-483.09
-513.77
-533.43
-542.28
-542.71
-537.04
-525.86
-508.06
-482.43
-448.85
-404.05
-346.07
-276.15
-199.44
-123.24
-54.99
-1.16
34.17
51.31
63.15
85.26
128.16
192.38
270.73
353.73
433.36
504.88
567.13
630.68
705.07
792.52
886.61
978.84
1064.63
1143.89
1217.93
1227.55
1131.83
931.21
671.65
409.24
179.64
-4.41
-143.73
-245.09
-317.44
-360.69
-375.18
-366.16
-344.60
-321.59
-303.08
-289.69
-279.39
-270.49
-256.17
-232.84
-203.19
-175.51
-157.76
-152.78
-158.43
-170.44
-185.70
-198.37
-204.30
-202.87
-196.94
-190.26
-185.15
-182.52
-182.65
-185.59
-189.34
-191.25
-189.94
-185.67
-179.82
-173.74
-168.62
-165.58
-165.93
-170.83
-180.53
-194.36
-210.50
-226.14
-238.07
-244.05
-243.75
-233.90
-215.26
-189.34
-157.48
-120.59
-79.64
-36.17
7.67
49.84
89.38
125.97
160.44
193.19
223.06
247.13
261.90
265.09
256.94
240.61
220.47
201.17
185.74
174.88
167.33
161.02
154.28
146.44
137.71
128.27
118.24
107.50
95.86
83.40
70.56
58.14
46.99
37.62
29.83
23.10
16.83
10.86
5.65
2.18
1.59
4.53
10.78
19.11
27.68
34.67
38.81
39.69
37.72
33.79
28.86
23.58
18.30
13.16
8.35
4.24
1.34
0.05
0.43
2.07
4.24
6.09
6.90
6.21
3.86
-0.01
-5.06
-10.77
-16.67
-22.53
-28.44
-34.67
-41.34
-48.02
-53.54
-56.32
-54.95
-48.87
-38.75
-26.26
-13.45
-2.03
7.09
13.78
18.36
21.15
22.27
21.67
19.38
15.83
11.83
8.37
6.21
5.52
5.78
6.07
5.54
3.83
1.15
-1.83
-4.38
-6.09
-6.98
-7.53
-8.47
-10.52
-14.17
-19.57
-26.27
-33.24
-38.99
-41.92
-40.81
-35.30
-26.04
-14.53
-2.60
8.18
16.80
22.97
26.80
28.54
28.35
26.38
22.94
18.66
14.45
11.19
9.40
9.00
9.38
9.72
9.46
8.48
7.06
5.57
4.21
2.88
1.33
-0.70
-3.42
-7.07
-11.95
-18.24
-25.70
-33.35
-39.51
-42.25
-40.20
-33.16
-22.30
-9.71
2.43
12.60
20.23
25.46
28.65
30.02
29.55
27.21
23.29
18.55
13.98
10.47
8.42
7.63
7.41
7.02
6.04
4.51
2.79
1.29
0.17
-0.78
-2.06
-4.23
-7.73
-12.76
-19.13
-26.24
-33.10
-38.33
-40.51
-38.60
-32.31
-22.27
-9.94
2.87
14.53
23.95
30.69
34.76
36.41
35.94
33.67
30.04
25.69
21.38
17.80
15.34
13.96
13.24
12.68
11.93
10.92
9.82
8.86
8.11
7.48
6.63
5.08
2.34
-2.05
-8.26
-15.99
-24.27
-31.52
-35.92
-36.00
-31.24
-22.39
-11.23
0.06
9.61
16.41
20.27
21.55
20.74
18.22
14.28
9.31
4.00
-0.75
-4.16
-5.89
-6.13
-5.48
-4.63
-4.03
-3.80
-3.84
-3.97
-4.08
-4.22
-4.60
-5.57
-7.60
-11.08
-16.10
-22.17
-28.15
-32.42
-33.51
-30.58
-23.93
-14.84
-5.08
3.64
10.28
14.48
16.41
16.45
14.93
12.13
8.39
4.17
0.14
-3.07
-5.04
-5.73
-5.46
-4.73
-4.02
-3.61
-3.60
-3.93
-4.48
-5.16
-6.01
-7.21
-9.10
-12.04
-16.21
-21.28
-26.28
-29.70
-30.01
-26.25
-18.56
-8.19
2.91
12.80
20.15
24.53
26.18
25.59
23.22
19.36
14.37
8.81
3.56
-0.50
-2.79
-3.28
-2.50
-1.27
-0.36
-0.18
-0.74
-1.77
-2.90
-3.84
-4.55
-5.22
-6.34
-8.48
-12.13
-17.32
-23.35
-28.74
-31.63
-30.46
-24.66
-14.96
-3.29
7.98
16.86
22.38
24.67
24.48
22.63
19.61
15.58
10.60
4.94
-0.72
-5.40
-8.21
-8.83
-7.67
-5.68
-3.86
-2.96
-3.41
-5.10
-7.53
-10.01
-12.15
-13.93
-15.63
-17.43
-19.70
-23.14
-28.29
-34.92
-41.96
-47.79
-50.85
-49.98
-44.59
-35.46
-24.92
-15.49
-8.72
-4.96
-3.88
-5.06
-7.72
-10.17
-11.00
-9.91
-7.66
-5.73
-6.62
-13.55
-29.27
-54.54
-87.26
-118.82
-139.86
-145.89
-138.72
-120.99
-92.48
-51.79
-2.82
53.44
112.38
164.21
200.04
219.34
227.48
229.46
225.30
210.74
182.01
138.99
86.72
33.85
-10.56
-40.47
-53.71
-50.67
-33.38
-5.08
27.34
55.53
70.37
66.40
44.15
9.69
-28.23
-61.70
-85.70
-98.48
-99.99
-90.24
-69.02
-37.97
-2.18
30.44
51.95
57.91
48.57
28.63
4.49
-17.45
-32.23
-38.35
-37.53
-33.15
-28.32
-24.84
-22.90
-21.76
-20.56
-18.93
-17.20
-15.58
-13.67
-10.33
-4.27
5.20
17.46
30.75
42.67
50.80
53.77
51.51
45.22
36.82
28.36
21.31
16.20
12.99
10.86
8.96
6.71
3.84
0.58
-2.50
-4.71
-5.81
-5.35
-4.02
-2.76
-2.91
-5.59
-11.14
-18.74
-26.92
-34.95
-41.57
-47.64
-54.33
-63.65
-77.61
-96.97
-120.27
-143.88
-163.70
-173.05
-168.09
-146.69
-112.08
-72.77
-39.26
-20.11
-19.22
-36.24
-63.19
-91.71
-111.62
-117.26
-108.79
-89.50
-62.86
-23.70
14.46
54.54
98.23
150.05
210.30
273.12
329.19
369.54
388.20
382.30
356.86
300.26
221.00
141.72
80.58
41.81
22.56
20.39
32.52
56.10
82.21
103.41
112.70
106.52
87.97
63.88
42.11
26.65
18.51
13.63
10.21
6.29
-0.26
-10.89
-25.90
-45.78
-73.43
-104.12
-137.67
-173.16
-211.40
-254.91
-305.49
-361.74
-417.90
-465.11
-493.46
-496.88
-473.16
-425.88
-362.90
-292.99
-223.13
-157.84
-100.15
-52.56
-18.04
2.42
10.25
9.36
5.03
2.09
3.38
9.43
19.44
31.71
45.30
59.83
74.83
89.36
102.01
111.44
116.94
118.67
117.12
112.98
106.86
99.15
90.31
81.01
72.16
64.62
58.93
55.11
52.92
52.19
52.98
55.54
60.06
66.36
73.69
80.83
86.39
89.22
88.54
84.03
75.78
64.25
50.19
34.71
19.33
5.87
-3.76
-8.03
-6.26
1.08
12.32
24.94
36.31
44.33
48.04
47.73
44.67
40.58
36.87
34.25
32.57
31.13
29.21
26.60
23.72
21.35
20.14
20.07
20.40
20.10
18.36
14.98
10.44
5.51
0.87
-3.24
-7.01
-10.85
-15.20
-20.36
-26.39
-33.11
-39.96
-46.04
-50.20
-51.35
-48.82
-42.60
-33.38
-22.32
-10.73
0.22
9.60
16.69
20.94
21.96
19.71
14.65
7.78
0.52
-5.69
-9.84
-11.57
-11.21
-9.50
-7.19
-4.75
-2.32
0.23
3.04
6.03
8.86
10.96
11.64
10.23
6.24
-0.46
-9.46
-19.67
-29.40
-36.66
-39.72
-37.63
-30.49
-19.38
-6.05
7.67
20.19
30.37
37.46
41.07
41.11
37.86
32.07
24.97
18.04
12.67
9.76
9.50
11.35
14.29
17.24
19.34
20.22
19.93
18.79
17.17
15.29
13.13
10.46
6.88
1.99
-4.34
-11.79
-19.38
-25.54
-28.60
-27.31
-21.43
-11.84
-0.29
11.24
21.19
28.69
33.61
36.10
36.33
34.36
30.30
24.57
18.06
11.96
7.35
4.79
4.11
4.59
5.30
5.56
5.17
4.32
3.37
2.50
1.57
0.15
-2.35
-6.46
-12.53
-20.54
-29.99
-39.74
-48.13
-53.24
-53.45
-47.99
-37.28
-22.83
-6.77
8.77
22.15
32.43
39.28
42.78
43.18
40.93
36.72
31.53
26.49
22.57
20.34
19.71
20.10
20.62
20.51
19.39
17.32
14.66
11.83
9.14
6.64
4.13
1.17
-2.82
-8.39
-15.77
-24.51
-33.34
-40.31
-43.39
-41.20
-33.57
-21.69
-7.66
6.33
18.56
28.21
35.07
39.26
40.83
39.79
36.31
30.96
24.84
19.31
15.49
13.90
14.20
15.41
16.39
16.32
14.98
12.69
10.03
7.45
5.08
2.74
0.02
-3.49
-8.18
-14.29
-21.78
-30.21
-38.50
-45.07
-48.15
-46.37
-39.34
-27.90
-13.91
0.33
12.82
22.33
28.53
31.76
32.66
31.76
29.46
26.06
21.99
17.94
14.74
13.14
13.45
15.31
17.82
19.88
20.63
19.80
17.68
14.92
12.05
9.31
6.60
3.69
0.41
-3.32
-7.57
-12.53
-18.44
-25.37
-32.80
-39.44
-43.54
-43.44
-38.30
-28.51
-15.61
-1.76
10.99
21.25
28.46
32.67
34.30
33.76
31.49
27.95
23.76
19.65
16.39
14.55
14.36
15.63
17.77
19.98
21.45
21.61
20.33
17.87
14.74
11.45
8.27
5.19
1.97
-1.59
-5.63
-10.18
-15.27
-20.95
-27.22
-33.76
-39.72
-43.78
-44.44
-40.70
-32.46
-20.79
-7.58
5.08
15.55
23.04
27.52
29.47
29.46
27.98
25.41
22.15
18.71
15.68
13.59
12.68
12.91
13.89
15.08
15.93
16.01
15.09
13.13
10.30
6.85
3.05
-0.91
-4.94
-8.98
-12.96
-16.78
-20.45
-24.19
-28.40
-33.53
-39.68
-46.25
-51.89
-54.79
-53.36
-46.92
-36.08
-22.61
-8.77
3.42
12.76
19.02
22.57
23.99
23.74
22.13
19.53
16.44
13.59
11.64
10.98
11.50
12.71
13.99
14.86
15.15
14.94
14.40
13.58
12.35
10.45
7.72
4.20
0.20
-3.83
-7.44
-10.31
-12.44
-14.07
-15.74
-18.14
-21.96
-27.49
-34.41
-41.56
-47.15
-49.29
-46.71
-39.28
-28.10
-15.13
-2.47
8.32
16.49
22.01
25.21
26.40
25.87
23.91
21.06
18.07
15.76
14.69
14.93
16.09
17.47
18.39
18.48
17.76
16.58
15.34
14.26
13.21
11.79
9.53
6.15
1.80
-3.06
-7.73
-11.61
-14.43
-16.30
-17.67
-19.21
-21.55
-25.20
-30.36
-36.72
-43.42
-49.04
-51.92
-50.64
-44.66
-34.55
-21.90
-8.83
2.79
11.78
17.91
21.56
23.38
23.82
23.12
21.41
18.97
16.32
14.14
13.00
13.09
14.20
15.75
17.06
17.60
17.16
15.85
13.99
11.99
10.06
8.24
6.31
3.93
0.88
-2.81
-6.78
-10.47
-13.35
-15.19
-16.15
-16.75
-17.63
-19.34
-22.20
-26.28
-31.39
-37.03
-42.37
-46.19
-47.19
-44.31
-37.26
-26.75
-14.28
-1.73
9.26
17.73
23.42
26.60
27.69
27.09
25.09
22.04
18.51
15.19
12.80
11.78
12.14
13.47
15.10
16.36
16.86
16.58
15.76
14.68
13.49
12.09
10.23
7.73
4.59
1.05
-2.53
-5.81
-8.58
-10.84
-12.68
-14.35
-16.21
-18.71
-22.29
-27.13
-32.89
-38.58
-42.69
-43.64
-40.43
-33.02
-22.48
-10.54
0.97
10.72
18.10
23.10
25.98
27.00
26.26
23.90
20.30
16.21
12.60
10.35
9.89
11.03
13.02
14.91
15.87
15.51
13.99
11.86
9.77
8.15
7.02
5.97
4.42
1.95
-1.50
-5.58
-9.70
-13.29
-16.10
-18.19
-19.84
-21.49
-23.52
-26.31
-30.10
-34.89
-40.19
-45.00
-47.87
-47.33
-42.50
-33.51
-21.57
-8.61
3.36
12.87
19.35
23.02
24.56
24.67
23.83
22.28
20.21
17.91
15.83
14.42
13.96
14.41
15.42
16.50
17.20
17.29
16.77
15.80
14.57
13.20
11.74
10.12
8.22
5.90
3.03
-0.29
-3.83
-7.20
-10.04
-12.18
-13.74
-15.08
-16.58
-18.55
-21.17
-24.52
-28.70
-33.70
-39.17
-44.26
-47.57
-47.60
-43.34
-34.82
-23.21
-10.49
1.36
10.96
17.83
22.23
24.77
25.89
25.84
24.73
22.76
20.38
18.20
16.75
16.26
16.63
17.45
18.25
18.69
18.70
18.43
18.07
17.65
17.05
15.98
14.18
11.63
8.61
5.58
2.96
0.95
-0.59
-2.06
-3.87
-6.26
-9.18
-12.32
-15.26
-17.67
-19.39
-20.51
-21.39
-22.54
-24.62
-28.17
-33.37
-39.76
-46.12
-50.70
-51.71
-47.99
-39.55
-27.58
-14.09
-1.19
9.58
17.55
22.77
25.70
26.81
26.40
24.76
22.26
19.54
17.24
15.90
15.63
16.15
16.96
17.61
17.92
17.99
18.03
18.13
18.18
17.84
16.79
14.89
12.26
9.28
6.31
3.64
1.28
-0.91
-3.11
-5.44
-7.90
-10.35
-12.68
-14.82
-16.78
-18.71
-20.81
-23.37
-26.67
-30.88
-35.81
-40.80
-44.64
-45.85
-43.22
-36.34
-25.87
-13.44
-1.08
9.48
17.26
22.16
24.63
25.32
24.65
22.85
20.08
16.70
13.27
10.53
9.02
9.01
10.25
12.21
14.20
15.66
16.27
16.02
15.13
13.89
12.48
11.00
9.42
7.72
5.91
4.06
2.21
0.35
-1.60
-3.74
-6.08
-8.51
-10.94
-13.40
-16.18
-19.72
-24.35
-29.96
-35.74
-40.31
-42.14
-40.09
-33.88
-24.24
-12.64
-0.80
9.81
18.26
24.15
27.52
28.59
27.68
25.18
21.57
17.49
13.67
10.80
9.34
9.38
10.63
12.47
14.21
15.28
15.43
14.79
13.73
12.63
11.63
10.58
9.07
6.70
3.30
-0.94
-5.50
-9.76
-13.27
-15.89
-17.78
-19.32
-20.94
-23.04
-25.98
-30.02
-35.18
-40.93
-46.13
-49.14
-48.32
-42.77
-32.75
-19.77
-6.00
6.41
16.08
22.60
26.36
28.02
28.14
27.02
24.82
21.81
18.52
15.65
13.83
13.37
14.14
15.58
17.03
17.91
17.98
17.36
16.44
15.58
14.93
14.27
13.14
11.05
7.78
3.51
-1.20
-5.63
-9.23
-11.86
-13.71
-15.22
-16.89
-19.11
-22.14
-26.15
-31.10
-36.56
-41.57
-44.72
-44.52
-39.97
-31.04
-18.80
-5.13
7.93
18.81
26.75
31.71
34.11
34.48
33.27
30.93
27.97
25.02
22.67
21.25
20.68
20.46
19.82
18.11
15.13
11.16
6.92
3.16
0.35
-1.55
-2.99
-4.53
-6.53
-8.96
-11.46
-13.51
-14.74
-15.15
-15.04
-14.95
-15.48
-17.15
-20.23
-24.64
-29.90
-35.03
-38.72
-39.63
-36.72
-29.75
-19.35
-6.99
5.52
16.51
24.95
30.63
33.95
35.63
36.34
36.50
36.31
35.88
35.34
34.94
34.94
35.56
36.86
38.70
40.81
42.84
44.49
45.52
45.84
45.40
44.19
42.24
39.71
36.94
34.36
32.18
30.07
26.99
21.43
11.91
-2.27
-20.69
-41.69
-62.87
-81.66
-96.04
-104.87
-108.10
-106.62
-101.99
-96.17
-90.98
-87.78
-87.12
-88.71
-91.59
-94.41
-95.71
-94.13
-88.62
-78.63
-64.29
-46.52
-26.96
-7.61
9.61
23.35
33.05
38.98
41.99
43.08
43.15
42.76
42.11
41.06
39.29
36.39
32.00
25.96
18.44
10.10
2.04
-4.31
-7.54
-6.74
-1.80
6.41
16.28
25.95
33.83
39.02
41.39
41.42
39.81
37.24
34.12
30.74
27.29
24.09
21.47
19.73
18.92
18.74
18.59
17.79
15.90
12.91
9.28
5.64
2.50
-0.06
-2.38
-5.04
-8.55
-13.13
-18.81
-25.38
-32.44
-39.36
-45.13
-48.51
-48.32
-43.94
-35.67
-24.73
-12.86
-1.73
7.62
14.90
20.34
24.32
27.02
28.40
28.41
27.18
25.18
23.04
21.32
20.26
19.67
19.15
18.26
16.77
14.75
12.44
10.09
7.78
5.40
2.74
-0.40
-4.09
-8.36
-13.26
-18.88
-25.22
-31.96
-38.37
-43.27
-45.31
-43.47
-37.50
-28.01
-16.43
-4.45
6.47
15.44
22.24
27.05
30.19
31.90
32.29
31.48
29.72
27.49
25.32
23.68
22.77
22.47
22.40
22.14
21.36
19.96
18.05
15.87
13.63
11.42
9.13
6.59
3.59
0.03
-4.14
-8.92
-14.42
-20.75
-27.85
-35.26
-41.89
-46.29
-47.01
-43.23
-35.16
-24.02
-11.69
0.01
9.85
17.35
22.68
26.23
28.32
29.13
28.78
27.51
25.76
24.07
22.92
22.52
22.79
23.47
24.24
24.77
24.82
24.23
22.90
20.84
18.16
15.03
11.64
8.11
4.47
0.72
-3.18
-7.31
-11.80
-16.88
-22.74
-29.35
-36.22
-42.33
-46.27
-46.75
-43.05
-35.37
-24.79
-12.92
-1.30
8.92
17.19
23.39
27.61
29.95
30.57
29.74
27.99
26.03
24.58
24.12
24.75
26.16
27.74
28.88
29.15
28.45
27.02
25.25
23.44
21.63
19.59
16.89
13.27
8.75
3.72
-1.24
-5.60
-9.15
-12.05
-14.75
-17.83
-21.83
-27.06
-33.51
-40.72
-47.73
-53.17
-55.57
-53.81
-47.54
-37.42
-24.94
-11.92
0.03
9.98
17.76
23.68
28.14
31.37
33.39
34.15
33.84
32.93
32.06
31.74
32.19
33.20
34.28
34.93
34.84
34.01
32.66
31.10
29.58
28.15
26.63
24.75
22.26
19.11
15.50
11.82
8.50
5.77
3.58
1.59
-0.68
-3.55
-7.10
-11.08
-15.13
-18.89
-22.16
-24.98
-27.57
-30.27
-33.48
-37.60
-42.88
-49.22
-56.00
-61.97
-65.48
-64.98
-59.56
-49.44
-36.01
-21.32
-7.50
4.01
12.70
18.87
23.22
26.35
28.53
29.75
29.98
29.42
28.54
27.92
27.96
28.69
29.78
30.64
30.82
30.13
28.72
26.99
25.34
23.98
22.85
21.65
20.01
17.69
14.72
11.40
8.16
5.31
2.91
0.70
-1.64
-4.33
-7.25
-9.96
-11.96
-12.96
-13.07
-12.84
-13.03
-14.33
-17.28
-22.07
-28.65
-36.60
-45.12
-52.93
-58.47
-60.22
-57.21
-49.49
-38.14
-25.05
-12.22
-1.19
7.29
13.33
17.41
20.11
21.81
22.68
22.89
22.68
22.39
22.37
22.79
23.61
24.54
25.28
25.58
25.36
24.69
23.75
22.67
21.53
20.30
18.82
16.88
14.36
11.33
8.05
4.94
2.33
0.34
-1.25
-2.83
-4.78
-7.25
-10.11
-13.04
-15.76
-18.15
-20.30
-22.48
-24.97
-28.05
-31.92
-36.65
-42.04
-47.53
-52.08
-54.31
-53.00
-47.48
-38.03
-25.88
-12.81
-0.65
9.31
16.48
20.92
23.09
23.51
22.69
21.05
19.07
17.26
16.05
15.72
16.26
17.41
18.75
19.87
20.47
20.45
19.86
18.85
17.57
16.12
14.53
12.80
10.90
8.79
6.44
3.89
1.18
-1.56
-4.21
-6.65
-8.87
-10.96
-13.03
-15.15
-17.31
-19.47
-21.65
-24.07
-27.12
-31.14
-36.17
-41.62
-46.31
-48.72
-47.48
-41.97
-32.61
-20.67
-8.02
3.56
12.78
19.11
22.66
23.98
23.74
22.54
20.87
19.09
17.53
16.43
15.94
16.11
16.86
17.94
19.04
19.85
20.14
19.83
19.00
17.75
16.16
14.24
11.91
9.14
6.05
2.87
-0.10
-2.65
-4.75
-6.58
-8.38
-10.36
-12.62
-15.10
-17.65
-20.11
-22.37
-24.43
-26.52
-29.03
-32.37
-36.78
-41.99
-47.09
-50.66
-51.15
-47.45
-39.43
-28.00
-14.89
-2.08
8.80
16.85
21.94
24.49
25.11
24.35
22.63
20.36
17.95
15.89
14.60
14.28
14.86
15.96
17.10
17.84
17.92
17.29
16.09
14.52
12.70
10.74
8.63
6.36
4.01
1.64
-0.63
-2.73
-4.65
-6.40
-8.06
-9.67
-11.26
-12.82
-14.38
-16.02
-17.96
-20.49
-23.95
-28.50
-33.94
-39.55
-44.14
-46.33
-44.95
-39.58
-30.71
-19.67
-8.23
1.93
9.70
14.74
17.37
18.30
18.30
17.93
17.49
17.11
16.91
17.06
17.77
19.15
21.13
23.34
25.26
26.38
26.41
25.36
23.51
21.28
19.03
16.95
15.03
13.09
10.90
8.27
5.12
1.54
-2.28
-6.07
-9.60
-12.69
-15.32
-17.54
-19.53
-21.59
-24.15
-27.62
-32.21
-37.68
-43.20
-47.41
-48.76
-46.09
-39.08
-28.55
-16.16
-3.90
6.58
14.37
19.39
22.10
23.14
23.00
21.99
20.37
18.46
16.71
15.57
15.28
15.79
16.79
17.88
18.75
19.32
19.67
19.91
20.04
19.89
19.22
17.78
15.49
12.52
9.20
5.97
3.14
0.89
-0.91
-2.56
-4.37
-6.59
-9.27
-12.22
-15.20
-17.94
-20.36
-22.54
-24.76
-27.40
-30.87
-35.34
-40.63
-45.96
-50.07
-51.44
-48.84
-41.80
-30.92
-17.70
-4.13
7.98
17.43
23.82
27.35
28.55
28.01
26.24
23.70
20.83
18.10
15.94
14.65
14.31
14.83
15.93
17.26
18.46
19.22
19.38
18.87
17.75
16.14
14.15
11.88
9.41
6.77
4.03
1.24
-1.56
-4.35
-7.12
-9.89
-12.63
-15.33
-17.99
-20.67
-23.57
-26.97
-31.14
-36.09
-41.40
-46.19
-49.22
-49.27
-45.59
-38.18
-27.80
-15.72
-3.33
8.22
18.22
26.29
32.32
36.27
38.20
38.26
36.77
34.19
31.09
28.04
25.50
23.81
23.08
23.18
23.70
24.10
23.87
22.72
20.71
18.16
15.52
13.10
10.96
8.87
6.52
3.70
0.41
-3.11
-6.52
-9.55
-12.13
-14.35
-16.42
-18.54
-20.88
-23.60
-26.92
-31.02
-35.96
-41.37
-46.31
-49.39
-49.17
-44.73
-36.12
-24.46
-11.57
0.61
10.62
17.79
22.21
24.43
25.12
24.82
23.90
22.61
21.17
19.85
18.90
18.52
18.76
19.49
20.48
21.42
22.06
22.26
21.97
21.24
20.14
18.70
16.92
14.82
12.43
9.77
6.89
3.83
0.68
-2.46
-5.50
-8.41
-11.26
-14.09
-16.96
-19.80
-22.56
-25.32
-28.32
-31.99
-36.58
-41.92
-47.09
-50.61
-50.81
-46.57
-37.79
-25.55
-11.74
1.53
12.57
20.55
25.43
27.71
28.10
27.25
25.68
23.77
21.86
20.27
19.27
19.01
19.45
20.37
21.45
22.37
22.86
22.83
22.27
21.28
19.94
18.33
16.50
14.49
12.34
10.01
7.45
4.56
1.34
-2.11
-5.54
-8.64
-11.18
-13.14
-14.60
-15.83
-17.16
-19.05
-21.97
-26.39
-32.40
-39.50
-46.45
-51.49
-52.86
-49.49
-41.43
-29.89
-16.80
-4.14
6.66
14.93
20.68
24.28
26.11
26.48
25.68
24.11
22.35
20.99
20.54
21.11
22.45
23.99
25.12
25.38
24.65
23.09
21.08
18.97
17.01
15.25
13.58
11.82
9.81
7.44
4.69
1.60
-1.73
-5.15
-8.51
-11.62
-14.35
-16.61
-18.43
-20.00
-21.71
-24.06
-27.47
-32.03
-37.33
-42.35
-45.71
-46.03
-42.45
-34.92
-24.29
-12.04
0.19
10.96
19.36
25.01
28.00
28.73
27.74
25.61
22.93
20.22
17.93
16.42
15.88
16.31
17.50
19.02
20.38
21.12
21.03
20.14
18.68
16.92
15.00
12.90
10.46
7.55
4.18
0.55
-3.01
-6.21
-8.87
-11.02
-12.86
-14.69
-16.81
-19.52
-23.07
-27.59
-32.99
-38.76
-43.94
-47.17
-47.16
-43.04
-34.82
-23.46
-10.59
1.97
12.74
20.85
26.11
28.78
29.31
28.22
25.98
23.13
20.28
18.01
16.78
16.79
17.90
19.73
21.78
23.61
24.95
25.71
25.94
25.74
25.23
24.46
23.44
22.12
20.46
18.47
16.22
13.97
12.12
11.08
11.13
12.17
13.63
14.58
14.05
11.63
7.74
3.78
1.46
1.76
4.40
7.97
11.10
13.78
17.87
26.12
40.04
58.30
76.49
88.84
90.69
80.27
58.35
26.50
-14.56
-64.94
-123.59
-185.76
-242.28
-281.60
-293.96
-275.24
-228.25
-160.57
-80.32
6.86
98.50
192.82
285.76
369.57
434.57
472.97
482.44
467.49
437.32
401.73
367.50
336.81
308.46
280.24
251.40
223.49
199.48
181.77
170.50
163.28
156.34
146.31
131.40
111.88
88.84
63.17
34.59
1.87
-36.47
-81.37
-131.92
-184.92
-234.79
-274.93
-299.81
-306.73
-296.18
-270.35
-231.38
-180.02
-116.56
-43.36
32.90
101.06
149.24
169.72
162.82
136.57
102.79
71.37
46.31
25.51
3.64
-24.26
-60.87
-106.21
-158.41
-213.62
-266.21
-308.27
-330.53
-325.13
-288.82
-225.60
-146.70
-67.57
-3.00
37.33
50.93
41.52
16.00
-18.63
-57.25
-96.55
-134.49
-169.62
-201.10
-229.49
-257.41
-289.53
-330.59
-382.70
-443.15
-504.33
-555.83
-587.78
-594.64
-577.16
-541.94
-498.19
-453.86
-413.16
-376.83
-343.81
-312.80
-283.41
-256.17
-231.80
-210.24
-189.85
-168.42
-145.26
-121.92
-100.59
-82.70
-68.16
-55.58
-42.86
-27.05
-5.85
20.04
46.96
71.33
91.57
108.44
123.88
140.03
160.26
188.23
225.31
269.25
316.32
361.40
398.10
419.14
410.86
363.56
285.95
200.25
122.88
57.63
-1.17
-58.60
-113.61
-160.77
-192.65
-204.62
-194.41
-169.93
-142.20
-119.74
-105.52
-97.42
-90.51
-78.95
-58.93
-31.05
-0.16
29.26
55.33
78.80
101.44
124.65
149.54
176.33
203.63
228.42
248.55
263.63
274.88
284.17
293.28
303.98
317.91
336.08
358.15
382.95
408.18
430.20
444.51
446.99
435.39
410.13
373.85
330.18
283.01
235.62
190.34
148.44
110.28
75.82
45.13
19.03
-0.72
-11.77
-12.33
-2.49
15.08
35.80
54.78
68.56
75.89
77.23
73.44
64.58
49.82
28.33
0.61
-30.79
-61.52
-86.90
-103.41
-109.95
-107.93
-100.50
-91.25
-83.12
-77.84
-76.04
-77.59
-81.94
-88.23
-95.12
-100.85
-103.52
-101.72
-95.20
-85.12
-73.66
-63.08
-54.66
-48.03
-41.32
-31.95
-17.81
1.93
26.66
54.72
83.99
112.30
137.38
156.59
166.91
165.48
150.63
122.99
85.91
44.85
5.90
-25.95
-48.08
-60.52
-65.37
-65.79
-64.93
-65.19
-67.86
-72.92
-79.13
-84.37
-86.10
-82.15
-71.55
-55.04
-35.21
-15.95
-1.43
5.19
2.69
-7.82
-23.35
-40.06
-54.42
-64.11
-68.20
-66.91
-61.10
-51.92
-40.76
-29.33
-19.60
-13.39
-11.74
-14.50
-20.29
-27.01
-32.68
-36.07
-36.98
-35.98
-33.98
-31.90
-30.61
-30.97
-33.78
-39.32
-46.98
-54.93
-60.53
-61.25
-55.66
-44.11
-28.48
-11.45
4.54
17.84
27.52
32.96
33.67
29.38
20.60
8.95
-2.95
-12.31
-17.07
-16.52
-11.40
-3.37
5.61
13.66
19.18
21.02
18.56
12.12
2.98
-6.81
-15.09
-20.32
-21.96
-20.55
-17.24
-13.42
-10.37
-9.12
-10.31
-13.86
-18.80
-23.25
-24.94
-22.08
-14.13
-1.94
12.64
27.55
41.12
52.02
58.84
59.81
53.07
37.75
14.97
-11.69
-37.07
-56.03
-65.25
-64.12
-54.60
-40.15
-24.44
-10.55
-0.63
4.12
3.47
-1.74
-9.67
-17.83
-23.88
-26.28
-24.84
-20.62
-15.49
-11.54
-10.45
-13.00
-18.69
-25.73
-31.46
-33.15
-29.12
-19.46
-6.07
8.10
20.29
28.98
34.13
36.80
38.19
39.03
39.36
38.93
37.64
35.77
33.90
32.53
31.77
31.27
30.49
29.01
26.72
23.84
20.68
17.39
13.89
9.93
5.32
0.10
-5.38
-10.56
-14.90
-18.04
-19.99
-21.14
-22.19
-24.04
-27.41
-32.52
-38.68
-44.30
-47.21
-45.41
-37.97
-25.47
-10.02
5.59
18.78
28.00
33.04
34.67
34.08
32.27
29.85
27.08
24.15
21.37
19.12
17.75
17.34
17.70
18.39
18.98
19.21
19.08
18.76
18.37
17.82
16.72
14.63
11.28
6.85
1.96
-2.55
-5.94
-7.96
-8.90
-9.44
-10.35
-12.08
-14.67
-17.69
-20.59
-22.90
-24.44
-25.34
-26.00
-27.00
-28.91
-32.20
-36.88
-42.25
-46.84
-48.67
-45.92
-37.73
-24.69
-8.83
7.11
20.55
29.94
35.00
36.44
35.42
32.98
29.80
26.32
22.93
20.10
18.33
17.96
19.02
21.07
23.35
24.99
25.32
24.13
21.69
18.64
15.69
13.28
11.43
9.74
7.66
4.80
1.17
-2.80
-6.48
-9.30
-11.06
-11.99
-12.61
-13.42
-14.83
-16.97
-19.87
-23.55
-27.92
-32.59
-36.63
-38.65
-37.17
-31.29
-21.20
-8.34
5.10
16.92
25.64
30.81
32.86
32.51
30.42
26.88
22.08
16.34
10.32
4.93
1.08
-0.72
-0.58
0.82
2.51
3.54
3.40
2.09
0.09
-1.98
-3.65
-4.88
-5.98
-7.47
-9.76
-12.88
-16.47
-19.88
-22.51
-24.06
-24.64
-24.71
-24.80
-25.41
-26.84
-29.28
-32.68
-36.75
-40.72
-43.31
-43.01
-38.56
-29.60
-16.93
-2.45
11.45
22.68
30.08
33.47
33.48
31.00
26.88
21.79
16.35
11.29
7.35
5.16
4.91
6.23
8.35
10.37
11.60
11.79
11.13
9.99
8.72
7.39
5.82
3.69
0.76
-2.89
-6.87
-10.62
-13.60
-15.53
-16.53
-17.06
-17.79
-19.38
-22.34
-26.74
-32.07
-37.19
-40.46
-40.15
-35.12
-25.33
-12.04
2.56
15.97
26.29
32.61
35.11
34.56
31.85
27.72
22.69
17.28
12.09
7.83
5.06
4.03
4.51
5.94
7.64
9.06
9.92
10.21
9.98
9.25
7.87
5.60
2.26
-2.08
-7.01
-11.85
-15.90
-18.67
-20.10
-20.57
-20.82
-21.66
-23.83
-27.63
-32.77
-38.25
-42.44
-43.51
-40.03
-31.58
-18.99
-4.21
10.31
22.43
30.87
35.34
36.31
34.59
30.94
26.03
20.49
15.07
10.52
7.51
6.29
6.66
8.00
9.52
10.60
10.95
10.68
10.05
9.26
8.23
6.64
4.13
0.56
-3.82
-8.40
-12.50
-15.61
-17.60
-18.72
-19.49
-20.55
-22.49
-25.79
-30.55
-36.27
-41.70
-45.01
-44.33
-38.48
-27.63
-13.30
2.05
15.93
26.61
33.42
36.62
36.91
34.94
31.25
26.30
20.73
15.42
11.33
9.15
9.05
10.59
12.85
14.86
15.89
15.70
14.51
12.80
10.99
9.25
7.40
5.06
1.85
-2.30
-7.11
-12.00
-16.27
-19.40
-21.23
-22.07
-22.54
-23.46
-25.62
-29.43
-34.76
-40.67
-45.57
-47.53
-44.99
-37.33
-25.23
-10.53
4.37
17.33
26.99
32.97
35.64
35.70
33.77
30.36
25.90
20.95
16.28
12.68
10.82
10.91
12.64
15.22
17.67
19.17
19.34
18.29
16.49
14.48
12.59
10.81
8.78
6.09
2.45
-2.01
-6.84
-11.36
-14.97
-17.42
-18.84
-19.72
-20.68
-22.32
-25.13
-29.31
-34.71
-40.57
-45.53
-47.81
-45.76
-38.60
-26.84
-12.29
2.57
15.44
24.92
30.74
33.47
33.98
32.93
30.68
27.43
23.53
19.60
16.49
14.92
15.23
17.21
20.13
22.99
24.91
25.37
24.35
22.22
19.56
16.90
14.51
12.35
10.16
7.64
4.57
0.99
-2.83
-6.51
-9.71
-12.28
-14.26
-15.86
-17.36
-19.12
-21.49
-24.80
-29.23
-34.52
-39.77
-43.47
-43.89
-39.70
-30.64
-17.74
-3.09
10.91
22.34
30.24
34.67
36.26
35.77
33.69
30.33
26.01
21.31
17.09
14.27
13.44
14.61
17.16
20.02
22.13
22.80
21.94
19.98
17.63
15.44
13.56
11.69
9.30
5.94
1.53
-3.53
-8.59
-12.93
-16.14
-18.22
-19.54
-20.60
-21.93
-23.92
-26.84
-30.83
-35.81
-41.27
-46.10
-48.78
-47.76
-42.07
-31.83
-18.33
-3.74
9.73
20.39
27.49
31.12
31.85
30.28
26.92
22.26
16.98
12.03
8.46
7.04
7.94
10.61
13.98
16.88
18.49
18.63
17.63
16.11
14.48
12.82
10.82
8.07
4.40
-0.02
-4.64
-8.84
-12.15
-14.49
-16.12
-17.56
-19.39
-22.15
-26.16
-31.40
-37.29
-42.64
-45.80
-45.18
-39.78
-29.77
-16.50
-2.07
11.34
22.14
29.64
33.90
35.35
34.45
31.64
27.40
22.41
17.62
14.00
12.30
12.73
14.87
17.81
20.50
22.11
22.32
21.35
19.76
18.11
16.62
15.15
13.23
10.43
6.58
1.94
-2.96
-7.49
-11.19
-13.95
-15.95
-17.58
-19.35
-21.78
-25.32
-30.24
-36.28
-42.51
-47.34
-48.91
-45.71
-37.35
-24.80
-10.16
4.11
15.98
24.43
29.48
31.77
31.96
30.50
27.62
23.61
19.09
14.98
12.22
11.45
12.72
15.42
18.64
21.41
23.14
23.70
23.35
22.50
21.46
20.27
18.69
16.38
13.10
8.85
3.93
-1.16
-5.87
-9.85
-12.96
-15.32
-17.28
-19.26
-21.80
-25.63
-31.28
-38.21
-45.41
-51.50
-54.65
-53.17
-46.20
-34.15
-19.01
-3.45
10.50
21.45
28.75
32.86
34.83
35.81
36.75
37.53
37.92
39.09
41.89
46.51
53.41
63.02
75.60
90.91
106.22
118.82
130.12
140.71
149.70
157.22
164.17
171.88
181.71
190.83
196.67
204.31
215.25
225.45
230.90
228.46
216.69
196.15
162.66
113.89
60.72
9.21
-42.26
-94.49
-147.27
-199.58
-250.47
-307.92
-379.23
-454.61
-529.35
-607.42
-690.83
-779.37
-870.09
-906.76
-852.31
-781.60
-721.91
-652.72
-573.44
-487.88
-400.82
-315.38
-232.29
-158.81
-100.43
-45.84
10.34
64.54
115.52
164.30
213.25
264.74
313.69
354.65
394.01
432.99
465.37
486.31
493.11
485.66
466.16
434.38
391.27
345.68
302.89
262.75
225.06
190.02
158.35
131.22
107.96
87.77
73.10
64.01
57.50
50.78
42.42
33.20
25.85
23.15
26.78
37.28
51.93
65.76
74.65
77.04
74.30
69.50
65.44
63.08
61.21
57.53
50.10
38.24
22.55
4.29
-15.15
-34.04
-49.74
-58.32
-55.22
-36.85
-2.58
44.17
96.29
144.95
182.18
203.01
206.36
194.62
172.29
144.43
115.39
88.23
64.72
45.65
31.20
21.06
14.28
9.09
2.86
-7.23
-23.23
-45.44
-71.94
-99.13
-123.06
-140.86
-151.65
-156.48
-157.40
-156.35
-154.41
-151.75
-148.30
-144.35
-140.78
-138.69
-138.63
-140.01
-141.04
-139.26
-132.47
-119.56
-100.84
-77.94
-53.09
-28.50
-5.79
14.26
31.61
46.76
60.32
72.67
83.51
91.63
95.14
92.16
82.00
66.00
47.53
30.90
19.48
14.06
12.51
10.79
4.81
-7.84
-27.10
-50.65
-74.66
-94.73
-106.47
-106.15
-91.31
-61.52
-18.83
32.15
84.94
132.32
167.70
186.39
186.46
169.14
138.31
99.21
56.69
13.81
-28.62
-71.30
-114.67
-157.48
-196.26
-225.87
-241.05
-237.99
-215.37
-174.65
-119.78
-56.58
7.93
66.46
112.42
141.12
150.82
143.38
123.72
98.62
74.72
56.73
46.45
42.91
43.43
45.01
45.40
43.49
39.20
32.98
25.41
17.13
8.80
1.17
-4.98
-9.07
-10.89
-10.74
-9.33
-7.65
-6.67
-7.10
-9.17
-12.60
-16.82
-21.22
-25.36
-29.14
-32.68
-36.18
-39.79
-43.58
-47.66
-52.27
-57.63
-63.61
-69.42
-73.53
-74.08
-69.60
-59.69
-45.36
-28.75
-12.38
1.61
12.04
18.71
22.14
23.09
22.31
20.42
17.93
15.35
13.18
11.86
11.67
12.63
14.51
16.85
19.06
20.51
20.73
19.45
16.73
12.91
8.45
3.85
-0.55
-4.61
-8.35
-11.95
-15.69
-19.92
-25.00
-31.13
-38.07
-44.91
-50.11
-51.88
-48.77
-40.37
-27.49
-12.07
3.55
17.29
27.91
35.05
39.06
40.52
39.98
37.86
34.64
30.94
27.58
25.43
25.06
26.55
29.33
32.43
34.80
35.69
34.92
32.83
30.09
27.26
24.64
22.09
19.19
15.57
11.05
5.84
0.44
-4.57
-8.74
-11.95
-14.43
-16.67
-19.27
-22.83
-27.81
-34.32
-41.94
-49.51
-55.26
-57.18
-53.73
-44.47
-30.37
-13.57
3.30
17.95
29.07
36.45
40.64
42.44
42.48
41.11
38.61
35.42
32.23
29.91
29.18
30.31
33.03
36.56
39.95
42.32
43.14
42.27
39.95
36.65
32.87
29.08
25.53
22.27
19.12
15.81
12.07
7.77
2.94
-2.23
-7.49
-12.58
-17.28
-21.52
-25.40
-29.27
-33.64
-38.98
-45.38
-52.21
-58.08
-61.10
-59.52
-52.48
-40.47
-25.31
-9.56
4.31
14.67
21.12
24.24
25.04
24.39
22.75
20.28
17.15
13.90
11.43
10.67
12.13
15.59
20.08
24.26
26.94
27.56
26.25
23.72
20.80
18.08
15.73
13.48
10.89
7.62
3.60
-0.88
-5.30
-9.13
-12.09
-14.19
-15.75
-17.24
-19.14
-21.85
-25.68
-30.75
-36.84
-43.17
-48.30
-50.46
-48.05
-40.36
-27.97
-12.70
2.98
16.82
27.37
34.26
37.91
39.07
38.36
36.21
32.94
29.09
25.41
22.78
21.88
22.91
25.48
28.70
31.49
32.98
32.76
31.00
28.23
25.11
22.12
19.33
16.52
13.30
9.44
4.94
0.16
-4.43
-8.41
-11.58
-14.08
-16.24
-18.46
-21.11
-24.48
-28.76
-34.08
-40.35
-47.07
-53.15
-56.98
-56.85
-51.59
-41.15
-26.81
-10.80
4.37
16.76
25.48
30.67
33.09
33.59
32.77
31.00
28.53
25.76
23.25
21.60
21.22
22.16
24.06
26.29
28.16
29.15
29.02
27.83
25.79
23.20
20.31
17.31
14.29
11.30
8.25
5.06
1.61
-2.14
-6.12
-10.14
-13.97
-17.44
-20.44
-23.05
-25.46
-28.01
-31.17
-35.41
-40.94
-47.36
-53.52
-57.64
-57.81
-52.78
-42.53
-28.37
-12.57
2.45
14.89
23.86
29.39
31.98
32.31
31.01
28.65
25.87
23.33
21.60
20.99
21.48
22.72
24.24
25.62
26.58
27.07
27.12
26.80
26.10
24.91
23.08
20.52
17.28
13.63
9.93
6.56
3.77
1.52
-0.44
-2.50
-4.99
-8.06
-11.61
-15.35
-18.92
-22.02
-24.55
-26.64
-28.69
-31.26
-34.96
-40.03
-46.08
-51.90
-55.69
-55.58
-50.37
-40.06
-25.98
-10.39
4.33
16.34
24.75
29.62
31.52
31.17
29.17
26.06
22.33
18.61
15.56
13.74
13.42
14.52
16.61
19.02
21.10
22.29
22.29
21.08
18.84
15.94
12.75
9.57
6.50
3.44
0.22
-3.30
-7.10
-10.97
-14.61
-17.81
-20.49
-22.77
-24.86
-26.98
-29.33
-32.10
-35.52
-39.78
-44.82
-50.10
-54.49
-56.40
-54.35
-47.55
-36.42
-22.49
-8.02
4.81
14.56
20.75
23.76
24.32
23.10
20.57
17.07
13.04
9.14
6.15
4.73
5.16
7.22
10.29
13.52
16.14
17.60
17.71
16.52
14.35
11.63
8.78
6.11
3.73
1.57
-0.61
-3.03
-5.78
-8.81
-11.90
-14.83
-17.43
-19.64
-21.56
-23.38
-25.41
-28.06
-31.68
-36.39
-41.76
-46.72
-49.66
-48.93
-43.47
-33.34
-19.80
-4.97
8.88
20.01
27.61
31.76
33.11
32.37
30.15
26.91
23.06
19.23
16.22
14.76
15.27
17.65
21.20
24.89
27.70
28.95
28.43
26.37
23.26
19.58
15.74
11.97
8.44
5.18
2.17
-0.71
-3.62
-6.69
-9.97
-13.37
-16.73
-19.85
-22.58
-24.87
-26.82
-28.72
-30.98
-34.09
-38.36
-43.63
-48.99
-52.89
-53.50
-49.41
-40.25
-27.02
-11.77
3.02
15.31
24.01
29.10
31.25
31.31
29.98
27.67
24.67
21.38
18.35
16.21
15.39
15.97
17.65
19.83
21.89
23.34
23.99
23.81
22.91
21.35
19.17
16.43
13.30
10.04
6.90
4.03
1.40
-1.18
-3.94
-6.97
-10.17
-13.30
-16.07
-18.31
-20.07
-21.64
-23.53
-26.32
-30.44
-35.86
-41.90
-47.16
-49.81
-48.24
-41.66
-30.55
-16.51
-1.81
11.42
21.72
28.60
32.30
33.42
32.60
30.36
27.17
23.58
20.24
17.78
16.65
16.91
18.33
20.40
22.58
24.39
25.50
25.71
24.96
23.30
20.84
17.85
14.56
11.25
8.04
4.98
2.01
-0.98
-4.07
-7.29
-10.59
-13.91
-17.15
-20.16
-22.88
-25.27
-27.52
-30.02
-33.30
-37.74
-43.24
-48.92
-53.17
-54.12
-50.30
-41.40
-28.49
-13.76
0.28
11.59
19.22
23.28
24.53
23.83
21.75
18.55
14.41
9.77
5.37
2.12
0.80
1.65
4.31
7.87
11.18
13.27
13.59
12.14
9.37
5.96
2.64
-0.07
-1.86
-2.75
-2.95
-2.82
-2.75
-3.02
-3.77
-5.00
-6.60
-8.41
-10.34
-12.39
-14.74
-17.73
-21.71
-26.74
-32.33
-37.29
-39.98
-38.82
-32.97
-22.76
-9.69
4.13
16.65
26.52
33.30
37.19
38.64
38.03
35.59
31.57
26.51
21.27
16.91
14.39
14.16
16.01
19.10
22.27
24.41
24.87
23.59
21.08
18.05
15.14
12.62
10.38
8.04
5.25
1.83
-2.10
-6.21
-10.10
-13.45
-16.10
-18.08
-19.58
-20.87
-22.35
-24.49
-27.77
-32.40
-38.09
-43.79
-47.80
-48.21
-43.62
-33.83
-20.00
-4.39
10.43
22.45
30.66
35.09
36.42
35.44
32.76
28.82
24.10
19.23
14.99
12.14
11.09
11.78
13.69
16.00
17.87
18.67
18.14
16.43
14.00
11.36
8.91
6.74
4.58
1.96
-1.48
-5.78
-10.57
-15.20
-19.02
-21.69
-23.31
-24.36
-25.43
-27.11
-29.80
-33.65
-38.51
-43.80
-48.43
-50.91
-49.80
-44.15
-34.05
-20.71
-6.15
7.46
18.47
26.15
30.62
32.51
32.52
31.12
28.67
25.49
22.08
19.11
17.24
16.90
18.09
20.36
22.98
25.18
26.38
26.30
25.00
22.76
19.95
16.92
13.90
10.99
8.15
5.30
2.34
-0.74
-3.82
-6.72
-9.27
-11.42
-13.23
-14.88
-16.59
-18.63
-21.29
-24.88
-29.55
-35.07
-40.55
-44.50
-45.20
-41.36
-32.76
-20.46
-6.53
6.72
17.48
24.89
28.98
30.29
29.42
26.82
22.83
17.96
12.96
8.79
6.27
5.83
7.27
9.89
12.70
14.84
15.78
15.50
14.35
12.79
11.16
9.47
7.46
4.73
1.02
-3.61
-8.70
-13.59
-17.64
-20.51
-22.32
-23.54
-24.91
-27.11
-30.59
-35.41
-41.07
-46.56
-50.44
-51.25
-47.87
-40.07
-28.65
-15.30
-2.08
9.19
17.38
22.19
24.00
23.43
21.06
17.39
12.93
8.34
4.49
2.25
2.16
4.20
7.71
11.63
14.85
16.64
16.83
15.77
14.03
12.06
10.02
7.69
4.77
1.05
-3.28
-7.72
-11.64
-14.56
-16.37
-17.41
-18.34
-19.92
-22.72
-27.00
-32.50
-38.39
-43.28
-45.52
-43.67
-37.03
-26.05
-12.27
2.13
15.03
24.99
31.55
35.04
36.15
35.46
33.35
30.02
25.80
21.31
17.41
14.96
14.46
15.85
18.47
21.31
23.40
24.11
23.37
21.54
19.19
16.76
14.34
11.70
8.51
4.55
-0.05
-4.83
-9.19
-12.64
-15.03
-16.59
-17.80
-19.23
-21.40
-24.71
-29.33
-35.05
-41.13
-46.24
-48.64
-46.80
-39.99
-28.73
-14.72
-0.28
12.40
21.97
28.08
31.21
32.13
31.49
29.65
26.82
23.32
19.71
16.75
15.12
15.17
16.69
19.04
21.35
22.83
23.09
22.21
20.60
18.78
17.08
15.51
13.78
11.49
8.35
4.41
0.04
-4.19
-7.75
-10.39
-12.17
-13.46
-14.76
-16.55
-19.22
-23.01
-27.89
-33.40
-38.52
-41.76
-41.58
-36.93
-27.78
-15.27
-1.40
11.62
22.12
29.33
33.39
34.97
34.79
33.35
30.89
27.65
24.04
20.73
18.47
17.80
18.82
21.12
23.87
26.19
27.40
27.26
25.95
23.89
21.53
19.14
16.75
14.24
11.39
8.07
4.35
0.51
-3.06
-5.99
-8.07
-9.39
-10.27
-11.15
-12.54
-14.89
-18.51
-23.50
-29.54
-35.75
-40.77
-43.02
-41.28
-35.22
-25.61
-14.14
-2.82
6.66
13.39
17.21
18.52
17.83
15.58
12.16
8.11
4.14
1.09
-0.33
0.14
2.22
5.11
7.77
9.30
9.20
7.53
4.78
1.66
-1.26
-3.76
-6.04
-8.49
-11.45
-14.94
-18.61
-21.91
-24.35
-25.73
-26.28
-26.53
-27.10
-28.53
-31.11
-34.86
-39.39
-43.82
-46.88
-47.12
-43.41
-35.42
-23.88
-10.45
2.81
14.10
22.39
27.49
29.81
29.89
28.17
24.96
20.65
15.89
11.57
8.62
7.64
8.66
11.12
14.08
16.53
17.82
17.78
16.75
15.27
13.77
12.36
10.77
8.56
5.39
1.32
-3.18
-7.41
-10.72
-12.84
-13.98
-14.72
-15.82
-17.95
-21.51
-26.51
-32.45
-38.29
-42.55
-43.62
-40.30
-32.34
-20.59
-6.89
6.55
17.86
26.03
30.95
33.16
33.36
32.07
29.59
26.18
22.27
18.57
15.88
14.83
15.53
17.60
20.19
22.36
23.42
23.09
21.60
19.42
17.04
14.69
12.29
9.55
6.17
2.13
-2.27
-6.52
-10.12
-12.78
-14.57
-15.83
-17.03
-18.62
-20.99
-24.42
-28.97
-34.35
-39.69
-43.62
-44.54
-41.19
-33.27
-21.62
-8.10
5.16
16.35
24.51
29.58
32.05
32.59
31.75
29.95
27.56
25.04
22.90
21.65
21.57
22.66
24.63
26.98
29.21
30.90
31.78
31.79
30.97
29.41
27.17
24.34
21.07
17.58
14.19
11.17
8.56
6.22
3.74
0.74
-2.95
-7.15
-11.35
-14.95
-17.52
-18.99
-19.70
-20.26
-21.40
-23.76
-27.72
-33.11
-39.12
-44.25
-46.70
-44.93
-38.30
-27.39
-13.94
-0.22
11.72
20.59
26.05
28.52
28.65
27.12
24.43
21.01
17.33
13.95
11.45
10.25
10.50
12.01
14.30
16.75
18.71
19.72
19.58
18.32
16.15
13.34
10.14
6.79
3.49
0.41
-2.38
-4.92
-7.33
-9.73
-12.21
-14.75
-17.27
-19.67
-21.92
-24.06
-26.19
-28.46
-31.07
-34.29
-38.34
-43.14
-48.06
-51.88
-52.96
-49.91
-42.20
-30.53
-16.76
-3.21
8.08
16.00
20.47
22.16
21.90
20.33
17.78
14.51
10.94
7.77
5.84
5.77
7.72
11.25
15.45
19.21
21.61
22.14
20.84
18.16
14.85
11.59
8.84
6.70
4.91
3.09
0.85
-1.92
-5.09
-8.31
-11.24
-13.67
-15.61
-17.25
-18.82
-20.57
-22.70
-25.46
-29.10
-33.62
-38.51
-42.68
-44.54
-42.55
-35.92
-24.98
-11.26
3.01
15.70
25.33
31.41
34.23
34.51
32.99
30.30
26.96
23.51
20.52
18.49
17.76
18.40
20.19
22.71
25.40
27.70
29.13
29.37
28.34
26.14
23.07
19.49
15.74
12.03
8.46
4.99
1.54
-1.97
-5.51
-9.01
-12.31
-15.31
-17.96
-20.32
-22.48
-24.58
-26.84
-29.57
-33.11
-37.59
-42.68
-47.38
-50.16
-49.36
-43.89
-33.79
-20.31
-5.58
8.09
18.97
26.34
30.37
31.75
31.26
29.39
26.47
22.82
18.93
15.52
13.34
12.85
14.08
16.53
19.36
21.71
22.93
22.75
21.30
19.00
16.44
14.07
12.18
10.73
9.41
7.80
5.51
2.39
-1.46
-5.68
-9.86
-13.63
-16.80
-19.30
-21.22
-22.79
-24.35
-26.32
-29.04
-32.56
-36.36
-39.37
-40.16
-37.44
-30.56
-19.89
-6.80
6.74
18.74
27.76
33.25
35.42
35.03
32.90
29.72
25.92
21.85
17.91
14.61
12.53
12.05
13.21
15.59
18.49
21.12
22.91
23.57
23.17
21.91
20.03
17.69
14.94
11.77
8.19
4.28
0.25
-3.61
-7.08
-10.01
-12.46
-14.61
-16.72
-19.02
-21.71
-25.01
-29.13
-34.21
-40.04
-45.91
-50.53
-52.35
-50.09
-43.35
-32.84
-20.24
-7.65
3.14
11.06
15.92
18.09
18.10
16.41
13.29
9.11
4.43
0.07
-3.08
-4.39
-3.67
-1.37
1.70
4.60
6.63
7.51
7.38
6.63
5.60
4.36
2.73
0.37
-2.91
-6.98
-11.30
-15.14
-17.87
-19.25
-19.57
-19.49
-19.86
-21.38
-24.41
-28.83
-33.97
-38.67
-41.46
-40.93
-36.18
-27.27
-15.29
-2.03
10.51
20.78
28.03
32.27
33.94
33.58
31.60
28.38
24.39
20.30
16.94
14.97
14.70
15.90
17.94
20.00
21.44
21.90
21.42
20.24
18.61
16.62
14.22
11.26
7.69
3.64
-0.58
-4.51
-7.77
-10.16
-11.81
-13.14
-14.81
-17.52
-21.79
-27.65
-34.44
-40.80
-44.93
-45.11
-40.38
-30.94
-18.20
-4.34
8.47
18.64
25.57
29.45
30.94
30.69
29.18
26.70
23.59
20.31
17.44
15.55
14.90
15.46
16.80
18.33
19.43
19.76
19.23
18.10
16.70
15.31
13.92
12.26
9.93
6.65
2.46
-2.22
-6.75
-10.54
-13.32
-15.17
-16.53
-17.99
-20.11
-23.34
-27.84
-33.37
-39.12
-43.73
-45.54
-43.18
-36.16
-25.13
-11.82
1.57
13.11
21.66
26.97
29.49
29.87
28.72
26.47
23.52
20.37
17.64
15.95
15.70
16.96
19.43
22.52
25.56
27.91
29.14
29.06
27.80
25.65
23.02
20.28
17.58
14.92
12.13
9.08
5.78
2.39
-0.80
-3.59
-5.91
-7.87
-9.65
-11.41
-13.29
-15.44
-18.16
-21.81
-26.60
-32.18
-37.49
-40.85
-40.52
-35.38
-25.54
-12.38
1.92
15.14
25.73
33.10
37.48
39.52
39.83
38.84
36.89
34.36
31.83
29.99
29.52
30.84
34.01
38.68
44.17
49.61
54.17
57.26
58.72
58.89
58.51
58.44
59.34
61.43
64.37
67.54
70.25
72.22
73.64
75.24
77.97
82.61
89.53
98.40
108.25
117.75
125.56
130.84
133.73
135.54
138.69
146.13
160.24
181.61
208.13
234.96
255.71
264.45
257.85
236.24
203.28
164.15
123.42
83.50
44.50
5.32
-34.80
-75.26
-114.38
-150.26
-182.10
-210.84
-238.86
-269.13
-304.46
-346.98
-397.80
-456.37
-519.66
-581.75
-634.54
-669.85
-682.18
-670.80
-639.85
-596.41
-547.45
-497.34
-447.29
-396.51
-344.23
-290.93
-238.30
-187.94
-140.07
-93.24
-44.82
7.70
65.85
129.55
196.71
263.26
323.33
370.15
397.39
401.08
380.93
340.82
287.75
229.98
174.93
127.82
91.21
65.51
49.81
42.48
41.48
44.50
49.08
52.90
54.22
52.06
46.34
37.90
28.04
18.31
10.12
4.48
1.98
2.75
6.55
12.77
20.40
27.98
33.83
36.39
34.91
29.85
23.08
17.34
15.33
18.70
27.41
39.85
53.46
65.68
74.74
79.88
81.18
79.24
74.85
68.85
62.20
55.87
50.71
47.22
45.28
44.33
43.61
42.62
41.42
40.55
40.66
42.14
44.73
47.60
49.64
49.87
47.68
43.05
36.44
28.67
20.75
13.55
7.61
2.79
-1.71
-7.10
-14.40
-23.74
-33.92
-42.62
-47.16
-45.58
-37.55
-24.55
-9.30
5.22
16.79
24.42
28.27
29.09
27.78
25.04
21.53
17.97
15.20
14.00
14.72
17.09
20.22
23.03
24.55
24.33
22.42
19.27
15.42
11.20
6.77
2.06
-2.99
-8.31
-13.71
-18.88
-23.55
-27.54
-30.90
-33.89
-36.97
-40.64
-45.20
-50.49
-55.64
-59.20
-59.45
-55.10
-45.81
-32.59
-17.48
-3.02
8.64
16.31
19.92
20.21
18.25
14.96
10.98
6.76
2.74
-0.53
-2.46
-2.63
-1.02
1.93
5.41
8.54
10.62
11.25
10.37
8.16
4.92
0.99
-3.26
-7.50
-11.38
-14.69
-17.36
-19.51
-21.52
-23.88
-27.11
-31.54
-37.10
-43.12
-48.35
-51.19
-50.13
-44.31
-33.88
-20.06
-4.86
9.53
21.33
29.53
33.94
35.01
33.50
30.24
26.07
21.75
18.06
15.61
14.75
15.43
17.20
19.34
21.12
22.10
22.16
21.52
20.45
19.08
17.25
14.61
10.86
6.01
0.47
-5.05
-9.85
-13.51
-16.07
-18.00
-20.01
-22.88
-27.12
-32.83
-39.42
-45.63
-49.71
-49.86
-44.93
-34.93
-21.19
-5.91
8.51
20.24
28.45
33.23
35.22
35.13
33.52
30.78
27.35
23.83
20.95
19.34
19.31
20.66
22.78
24.82
26.06
26.15
25.17
23.51
21.63
19.73
17.70
15.16
11.69
7.11
1.64
-4.14
-9.47
-13.70
-16.57
-18.29
-19.48
-20.99
-23.65
-27.95
-33.78
-40.33
-46.04
-49.03
-47.63
-40.96
-29.39
-14.52
1.34
15.84
27.30
35.05
39.29
40.74
40.14
38.10
35.01
31.23
27.24
23.66
21.11
20.09
20.67
22.51
24.87
26.89
27.88
27.50
25.86
23.37
20.53
17.69
14.89
11.97
8.66
4.80
0.43
-4.14
-8.50
-12.27
-15.24
-17.47
-19.21
-20.87
-22.92
-25.77
-29.76
-34.96
-40.99
-46.91
-51.21
-52.17
-48.46
-39.75
-26.99
-12.19
2.21
14.14
22.49
27.16
28.79
28.21
26.08
22.81
18.72
14.28
10.23
7.39
6.38
7.32
9.74
12.72
15.22
16.44
16.04
14.16
11.28
7.95
4.69
1.71
-0.98
-3.60
-6.44
-9.68
-13.29
-17.03
-20.48
-23.26
-25.18
-26.32
-27.02
-27.74
-28.97
-31.16
-34.57
-39.14
-44.34
-49.09
-51.90
-51.23
-46.07
-36.35
-23.14
-8.30
6.02
18.05
26.78
32.04
34.22
33.97
31.91
28.58
24.53
20.37
16.82
14.56
14.03
15.25
17.72
20.57
22.88
23.93
23.53
21.92
19.66
17.25
14.98
12.77
10.33
7.38
3.78
-0.30
-4.53
-8.50
-11.91
-14.66
-16.82
-18.64
-20.42
-22.52
-25.28
-29.01
-33.81
-39.41
-44.91
-48.87
-49.61
-45.84
-37.18
-24.51
-9.73
4.87
17.32
26.50
32.23
34.94
35.23
33.56
30.31
25.87
20.93
16.44
13.34
12.26
13.24
15.71
18.68
21.12
22.33
22.14
20.82
18.94
16.99
15.15
13.24
10.83
7.53
3.27
-1.65
-6.60
-10.91
-14.12
-16.20
-17.48
-18.52
-19.96
-22.31
-25.93
-30.82
-36.56
-42.18
-46.21
-47.04
-43.47
-35.16
-22.95
-8.62
5.65
17.97
27.18
33.02
35.86
36.32
34.98
32.26
28.57
24.42
20.51
17.65
16.44
17.11
19.34
22.31
25.06
26.74
26.96
25.83
23.85
21.61
19.47
17.48
15.35
12.71
9.36
5.39
1.17
-2.81
-6.18
-8.81
-10.85
-12.65
-14.62
-17.16
-20.58
-25.10
-30.74
-37.07
-43.17
-47.65
-48.95
-45.92
-38.26
-26.82
-13.34
0.04
11.48
19.86
24.84
26.69
25.94
23.13
18.83
13.69
8.51
4.19
1.43
0.54
1.28
3.02
4.92
6.34
6.93
6.71
5.92
4.77
3.26
1.23
-1.56
-5.20
-9.50
-13.96
-18.01
-21.18
-23.30
-24.57
-25.48
-26.63
-28.57
-31.67
-35.98
-41.06
-45.94
-49.22
-49.38
-45.29
-36.71
-24.55
-10.66
2.76
13.79
21.39
25.43
26.46
25.26
22.51
18.70
14.27
9.74
5.82
3.22
2.39
3.36
5.65
8.47
10.97
12.51
12.80
11.89
9.99
7.32
4.04
0.28
-3.80
-7.96
-11.83
-15.06
-17.48
-19.22
-20.73
-22.72
-25.85
-30.44
-36.12
-41.79
-45.77
-46.35
-42.37
-33.71
-21.41
-7.34
6.34
17.84
26.16
31.12
33.14
32.91
31.13
28.36
25.08
21.79
18.97
17.03
16.16
16.29
17.13
18.27
19.34
20.07
20.28
19.81
18.50
16.17
12.75
8.36
3.40
-1.62
-6.16
-9.83
-12.54
-14.49
-16.22
-18.41
-21.76
-26.66
-32.84
-39.32
-44.42
-46.31
-43.61
-35.99
-24.38
-10.66
2.97
14.70
23.56
29.39
32.58
33.64
32.99
30.95
27.90
24.41
21.26
19.17
18.59
19.46
21.25
23.15
24.39
24.52
23.60
21.95
20.05
18.14
16.15
13.75
10.55
6.39
1.46
-3.72
-8.50
-12.32
-14.95
-16.52
-17.52
-18.69
-20.77
-24.36
-29.64
-36.17
-42.78
-47.73
-49.16
-45.71
-37.06
-24.20
-9.14
5.75
18.49
27.98
34.09
37.37
38.48
37.98
36.22
33.56
30.54
27.90
26.39
26.43
27.96
30.45
33.09
35.12
36.13
36.08
35.22
33.93
32.47
30.93
29.21
27.08
24.34
20.92
17.00
12.96
9.31
6.44
4.52
3.31
2.29
0.85
-1.48
-4.83
-8.95
-13.37
-17.57
-21.15
-23.99
-26.18
-28.06
-30.13
-32.92
-36.94
-42.40
-49.01
-55.74
-60.93
-62.67
-59.44
-50.76
-37.48
-21.61
-5.65
8.14
18.41
24.82
27.81
28.17
26.61
23.73
20.08
16.32
13.28
11.75
12.21
14.58
18.18
21.98
24.96
26.45
26.34
25.01
23.00
20.78
18.50
16.00
13.04
9.48
5.52
1.54
-1.96
-4.67
-6.56
-7.85
-8.96
-10.28
-12.07
-14.39
-17.07
-19.82
-22.30
-24.28
-25.74
-26.89
-28.11
-29.88
-32.62
-36.54
-41.45
-46.63
-50.81
-52.42
-50.03
-42.88
-31.30
-16.72
-1.30
12.78
23.93
31.46
35.53
36.73
35.73
33.10
29.37
25.19
21.41
18.87
18.16
19.36
21.98
25.14
27.95
29.81
30.57
30.43
29.73
28.74
27.51
25.90
23.66
20.61
16.77
12.46
8.19
4.47
1.67
-0.25
-1.67
-3.18
-5.29
-8.19
-11.71
-15.38
-18.72
-21.40
-23.38
-24.88
-26.30
-28.14
-30.90
-34.99
-40.44
-46.69
-52.49
-56.08
-55.71
-50.31
-39.92
-25.83
-10.19
4.70
17.05
25.95
31.37
33.84
34.06
32.64
30.10
26.94
23.74
21.13
19.65
19.60
20.93
23.22
25.88
28.29
30.00
30.80
30.72
29.87
28.42
26.48
24.09
21.25
17.97
14.33
10.51
6.82
3.59
1.07
-0.72
-2.05
-3.39
-5.24
-7.92
-11.39
-15.27
-19.03
-22.14
-24.34
-25.71
-26.63
-27.67
-29.38
-32.23
-36.38
-41.62
-47.18
-51.80
-53.89
-51.96
-45.16
-33.68
-18.82
-2.67
12.52
24.93
33.62
38.51
40.10
39.15
36.39
32.48
28.14
24.12
21.22
19.99
20.62
22.74
25.61
28.29
30.10
30.73
30.35
29.36
28.14
26.82
25.25
23.11
20.17
16.43
12.22
8.07
4.53
1.89
0.12
-1.18
-2.55
-4.50
-7.24
-10.66
-14.34
-17.74
-20.47
-22.37
-23.64
-24.78
-26.45
-29.29
-33.73
-39.68
-46.42
-52.56
-56.39
-56.30
-51.41
-41.87
-28.88
-14.41
-0.52
11.10
19.55
24.62
26.65
26.16
23.70
19.78
14.98
10.00
5.60
2.49
1.11
1.55
3.45
6.14
8.85
10.90
11.92
11.79
10.70
8.93
6.77
4.42
1.96
-0.57
-3.17
-5.83
-8.52
-11.22
-13.85
-16.34
-18.54
-20.32
-21.59
-22.42
-23.02
-23.80
-25.27
-27.84
-31.67
-36.36
-40.89
-43.73
-43.31
-38.54
-29.34
-16.78
-2.80
10.44
21.22
28.65
32.76
34.12
33.41
31.16
27.70
23.33
18.57
14.22
11.14
10.02
11.02
13.69
17.10
20.20
22.18
22.69
21.84
20.05
17.81
15.48
13.22
10.94
8.46
5.59
2.23
-1.56
-5.56
-9.43
-12.90
-15.78
-18.11
-20.11
-22.16
-24.71
-28.17
-32.78
-38.39
-44.29
-49.21
-51.53
-49.79
-43.24
-32.23
-18.18
-3.21
10.56
21.59
29.19
33.46
34.97
34.35
32.14
28.78
24.76
20.70
17.34
15.32
14.95
16.14
18.33
20.79
22.79
23.87
23.90
22.98
21.38
19.34
17.00
14.39
11.44
8.09
4.30
0.17
-4.06
-8.07
-11.54
-14.26
-16.24
-17.71
-19.02
-20.59
-22.79
-25.90
-30.07
-35.13
-40.45
-44.88
-46.92
-45.15
-38.79
-28.10
-14.41
0.23
13.69
24.45
31.81
35.90
37.28
36.61
34.44
31.24
27.51
23.87
20.98
19.35
19.18
20.28
22.14
24.16
25.81
26.73
26.74
25.82
24.00
21.42
18.31
14.98
11.71
8.65
5.78
2.89
-0.23
-3.71
-7.42
-11.12
-14.50
-17.34
-19.62
-21.50
-23.32
-25.49
-28.49
-32.67
-38.12
-44.33
-50.16
-53.97
-54.05
-49.30
-39.73
-26.51
-11.72
2.39
14.00
22.14
26.69
28.10
27.04
24.21
20.25
15.83
11.62
8.28
6.33
6.02
7.27
9.68
12.65
15.51
17.64
18.66
18.43
17.09
14.96
12.42
9.78
7.21
4.74
2.31
-0.18
-2.79
-5.51
-8.29
-11.01
-13.55
-15.79
-17.68
-19.24
-20.66
-22.27
-24.52
-27.83
-32.44
-38.05
-43.72
-47.94
-49.00
-45.58
-37.31
-25.01
-10.51
3.97
16.46
25.77
31.57
34.18
34.20
32.29
29.02
25.04
21.06
17.86
16.02
15.82
17.06
19.21
21.59
23.62
25.00
25.69
25.79
25.36
24.36
22.66
20.15
16.90
13.17
9.37
5.91
2.97
0.51
-1.76
-4.16
-6.97
-10.22
-13.73
-17.16
-20.17
-22.56
-24.34
-25.76
-27.31
-29.62
-33.18
-38.11
-43.83
-49.00
-51.82
-50.60
-44.45
-33.67
-19.76
-4.86
8.93
20.15
28.19
33.09
35.21
34.96
32.78
29.19
24.95
20.97
18.13
17.02
17.75
19.96
22.93
25.86
28.08
29.21
29.26
28.46
27.21
25.76
24.16
22.24
19.77
16.63
12.93
9.04
5.46
2.56
0.44
-1.09
-2.44
-4.07
-6.25
-9.00
-12.11
-15.19
-17.88
-19.94
-21.35
-22.32
-23.31
-24.89
-27.64
-31.92
-37.63
-43.93
-49.34
-52.03
-50.39
-43.68
-32.37
-18.09
-3.04
10.65
21.55
29.13
33.53
35.28
34.88
32.79
29.46
25.50
21.72
18.97
17.89
18.70
21.03
24.17
27.24
29.55
30.77
30.97
30.48
29.63
28.61
27.34
25.58
23.08
19.79
15.94
12.02
8.54
5.87
4.07
2.84
1.73
0.26
-1.89
-4.77
-8.23
-11.94
-15.56
-18.78
-21.40
-23.46
-25.22
-27.20
-30.03
-34.22
-39.89
-46.41
-52.46
-56.23
-56.06
-50.95
-41.07
-27.71
-12.89
1.23
13.04
21.69
27.04
29.42
29.30
27.11
23.30
18.49
13.42
8.92
5.70
4.13
4.20
5.60
7.90
10.73
13.87
17.26
20.81
24.33
27.40
29.43
29.82
28.15
24.35
18.77
12.11
5.18
-1.29
-6.89
-11.51
-15.29
-18.45
-21.19
-23.67
-26.12
-28.87
-32.36
-36.92
-42.52
-48.54
-53.71
-56.44
-55.27
-49.46
-39.32
-26.10
-11.69
2.01
13.55
22.11
27.54
30.07
30.09
28.03
24.41
19.86
15.13
11.09
8.46
7.68
8.71
11.07
13.91
16.34
17.67
17.59
16.24
14.05
11.49
8.89
6.27
3.41
0.04
-3.97
-8.51
-13.17
-17.42
-20.85
-23.29
-24.90
-26.12
-27.50
-29.58
-32.79
-37.24
-42.67
-48.26
-52.69
-54.38
-51.99
-44.93
-33.69
-19.76
-5.13
8.28
19.10
26.77
31.33
33.18
32.78
30.57
27.06
22.90
18.90
15.88
14.47
14.92
16.93
19.80
22.61
24.55
25.16
24.42
22.68
20.44
18.11
15.80
13.33
10.39
6.72
2.33
-2.48
-7.23
-11.39
-14.65
-16.94
-18.51
-19.83
-21.51
-24.13
-28.13
-33.52
-39.73
-45.54
-49.28
-49.34
-44.76
-35.58
-22.96
-8.79
4.93
16.64
25.52
31.43
34.65
35.58
34.63
32.29
29.17
26.05
23.77
22.95
23.88
26.47
30.34
34.97
39.79
44.23
47.67
49.48
49.17
46.55
41.84
35.65
28.77
21.98
15.85
10.67
6.49
3.16
0.40
-2.09
-4.61
-7.30
-10.17
-13.09
-15.88
-18.42
-20.77
-23.15
-25.96
-29.64
-34.49
-40.44
-46.87
-52.55
-55.88
-55.33
-49.99
-40.04
-26.74
-12.12
1.64
12.83
20.52
24.56
25.39
23.68
20.19
15.66
10.85
6.57
3.51
2.19
2.80
5.14
8.67
12.65
16.33
19.08
20.56
20.65
19.47
17.26
14.27
10.78
7.03
3.25
-0.40
-3.79
-6.85
-9.59
-12.04
-14.29
-16.42
-18.48
-20.46
-22.27
-23.84
-25.13
-26.30
-27.71
-29.90
-33.37
-38.30
-44.26
-50.08
-54.10
-54.64
-50.58
-41.79
-29.27
-14.84
-0.53
11.87
21.29
27.41
30.46
30.99
29.59
26.83
23.26
19.50
16.19
13.96
13.26
14.18
16.42
19.33
22.12
24.08
24.80
24.25
22.70
20.53
18.09
15.53
12.88
10.07
7.06
3.85
0.50
-2.90
-6.24
-9.44
-12.46
-15.23
-17.71
-19.91
-21.93
-24.04
-26.66
-30.22
-34.85
-40.10
-44.82
-47.42
-46.33
-40.69
-30.74
-17.80
-3.85
9.14
19.76
27.33
31.88
33.81
33.67
31.94
29.11
25.68
22.26
19.43
17.73
17.47
18.67
20.98
23.76
26.26
27.79
28.03
27.03
25.17
22.97
20.76
18.64
16.42
13.75
10.40
6.40
2.01
-2.30
-6.13
-9.28
-11.80
-14.00
-16.18
-18.67
-21.65
-25.30
-29.71
-34.84
-40.33
-45.30
-48.47
-48.42
-44.18
-35.61
-23.64
-10.03
3.21
14.43
22.68
27.82
30.25
30.59
29.41
27.24
24.59
22.04
20.16
19.43
20.01
21.72
24.04
26.35
28.16
29.25
29.69
29.71
29.48
28.96
27.95
26.20
23.60
20.36
16.88
13.63
10.89
8.66
6.67
4.52
1.91
-1.24
-4.79
-8.45
-11.88
-14.87
-17.39
-19.68
-22.19
-25.47
-29.96
-35.70
-42.10
-47.93
-51.60
-51.61
-47.09
-38.17
-25.92
-12.10
1.42
13.07
21.92
27.69
30.59
31.13
29.91
27.52
24.55
21.60
19.22
17.85
17.76
18.89
20.93
23.36
25.65
27.37
28.28
28.29
27.43
25.73
23.23
20.00
16.23
12.21
8.29
4.74
1.68
-1.02
-3.59
-6.33
-9.36
-12.66
-16.02
-19.20
-22.03
-24.44
-26.60
-28.84
-31.63
-35.39
-40.29
-45.94
-51.29
-54.83
-54.96
-50.66
-41.90
-29.75
-15.99
-2.62
8.78
17.27
22.59
24.91
24.62
22.20
18.23
13.44
8.69
4.85
2.59
2.22
3.60
6.21
9.31
12.13
14.06
14.79
14.32
12.92
10.97
8.82
6.67
4.55
2.31
-0.25
-3.22
-6.46
-9.73
-12.69
-15.14
-17.06
-18.62
-20.12
-21.89
-24.23
-27.38
-31.41
-36.09
-40.76
-44.32
-45.45
-43.05
-36.65
-26.70
-14.48
-1.73
9.90
19.24
25.80
29.64
31.16
30.78
28.91
25.93
22.32
18.67
15.71
14.03
13.99
15.47
17.94
20.60
22.69
23.76
23.76
22.99
21.80
20.37
18.61
16.24
13.00
8.90
4.26
-0.37
-4.48
-7.79
-10.31
-12.32
-14.22
-16.39
-19.14
-22.75
-27.35
-32.86
-38.78
-44.10
-47.42
-47.31
-42.90
-34.20
-22.27
-8.86
4.07
15.00
23.11
28.33
31.03
31.72
30.82
28.67
25.64
22.24
19.11
16.87
15.96
16.45
18.07
20.22
22.22
23.45
23.55
22.48
20.49
17.99
15.37
12.87
10.49
8.06
5.34
2.19
-1.39
-5.19
-8.97
-12.45
-15.46
-17.95
-19.98
-21.81
-23.79
-26.39
-29.95
-34.49
-39.51
-43.95
-46.40
-45.51
-40.48
-31.38
-19.22
-5.67
7.42
18.55
26.82
32.04
34.52
34.80
33.39
30.77
27.38
23.78
20.59
18.44
17.78
18.68
20.78
23.40
25.75
27.15
27.30
26.22
24.23
21.77
19.19
16.67
14.15
11.41
8.21
4.44
0.18
-4.28
-8.56
-12.33
-15.47
-18.06
-20.42
-22.88
-25.82
-29.48
-33.98
-39.17
-44.52
-49.07
-51.54
-50.67
-45.74
-36.88
-25.21
-12.46
-0.47
9.38
16.45
20.71
22.47
22.07
19.85
16.22
11.83
7.62
4.52
3.21
3.85
5.99
8.80
11.41
13.16
13.80
13.43
12.39
10.99
9.42
7.64
5.49
2.79
-0.48
-4.14
-7.82
-11.15
-13.84
-15.89
-17.50
-19.05
-20.98
-23.64
-27.25
-31.77
-36.80
-41.51
-44.77
-45.31
-42.21
-35.20
-24.88
-12.55
0.17
11.75
21.14
27.88
31.94
33.55
33.07
30.89
27.51
23.60
19.92
17.24
16.14
16.81
18.91
21.71
24.26
25.75
25.78
24.45
22.27
19.78
17.38
15.08
12.59
9.54
5.74
1.31
-3.32
-7.63
-11.20
-13.93
-16.01
-17.89
-20.08
-23.03
-27.05
-32.16
-37.97
-43.65
-47.95
-49.50
-47.20
-40.66
-30.42
-17.84
-4.68
7.41
17.31
24.57
29.20
31.50
31.78
30.35
27.62
24.13
20.60
17.79
16.34
16.52
18.17
20.72
23.35
25.28
26.00
25.42
23.84
21.75
19.58
17.50
15.41
13.03
10.10
6.52
2.43
-1.89
-6.09
-9.89
-13.17
-15.95
-18.37
-20.71
-23.35
-26.69
-31.01
-36.33
-42.20
-47.64
-51.29
-51.72
-47.92
-39.65
-27.69
-13.65
0.49
12.92
22.48
28.80
32.19
33.25
32.62
30.81
28.23
25.32
22.62
20.70
19.99
20.64
22.43
24.82
27.14
28.82
29.50
29.11
27.82
25.88
23.56
21.02
18.32
15.47
12.42
9.15
5.69
2.13
-1.45
-4.94
-8.27
-11.43
-14.46
-17.43
-20.46
-23.75
-27.55
-32.06
-37.20
-42.50
-46.91
-49.12
-47.83
-42.35
-32.90
-20.65
-7.36
5.12
15.43
22.89
27.47
29.51
29.42
27.59
24.41
20.39
16.29
12.96
11.13
11.15
12.81
15.39
17.99
19.81
20.43
19.85
18.38
16.36
14.05
11.54
8.78
5.69
2.21
-1.64
-5.76
-9.96
-14.05
-17.83
-21.20
-24.14
-26.77
-29.29
-32.01
-35.22
-39.16
-43.81
-48.75
-53.03
-55.35
-54.43
-49.51
-40.65
-28.84
-15.64
-2.74
8.53
17.39
23.56
27.04
27.98
26.63
23.45
19.18
14.82
11.36
9.58
9.78
11.70
14.66
17.77
20.26
21.64
21.81
21.00
19.57
17.83
15.91
13.76
11.19
8.05
4.33
0.16
-4.15
-8.31
-12.07
-15.33
-18.20
-20.92
-23.90
-27.53
-32.06
-37.42
-42.98
-47.64
-49.94
-48.62
-43.03
-33.42
-20.95
-7.30
5.80
16.96
25.42
30.91
33.58
33.77
31.98
28.85
25.13
21.60
18.97
17.71
17.92
19.33
21.38
23.34
24.58
24.75
23.85
22.18
20.14
18.01
15.79
13.28
10.19
6.39
2.00
-2.61
-6.99
-10.76
-13.76
-16.09
-18.12
-20.35
-23.32
-27.44
-32.82
-39.10
-45.36
-50.26
-52.31
-50.37
-44.01
-33.72
-20.83
-7.10
5.75
16.44
24.27
29.15
31.38
31.47
29.95
27.40
24.35
21.35
18.91
17.48
17.29
18.32
20.24
22.49
24.43
25.53
25.59
24.70
23.19
21.37
19.39
17.16
14.49
11.23
7.38
3.19
-1.00
-4.84
-8.15
-10.94
-13.35
-15.60
-17.90
-20.47
-23.59
-27.52
-32.40
-38.04
-43.73
-48.28
-50.23
-48.36
-42.10
-31.82
-18.80
-4.82
8.29
19.10
26.90
31.58
33.47
33.14
31.22
28.33
25.13
22.26
20.30
19.66
20.41
22.31
24.83
27.35
29.32
30.46
30.71
30.18
28.97
27.13
24.65
21.51
17.86
13.98
10.21
6.84
3.98
1.47
-0.94
-3.55
-6.54
-9.88
-13.40
-16.82
-19.89
-22.50
-24.73
-26.85
-29.33
-32.67
-37.17
-42.70
-48.51
-53.26
-55.36
-53.50
-47.10
-36.64
-23.53
-9.63
3.21
13.68
21.18
25.69
27.54
27.17
25.01
21.54
17.36
13.20
9.88
8.02
7.91
9.42
12.02
14.95
17.48
19.09
19.52
18.78
17.05
14.61
11.77
8.80
5.89
3.13
0.46
-2.28
-5.23
-8.47
-11.91
-15.31
-18.39
-20.94
-22.94
-24.55
-26.13
-28.09
-30.83
-34.58
-39.19
-44.03
-48.01
-49.77
-48.14
-42.57
-33.32
-21.48
-8.52
4.16
15.55
25.03
32.22
36.74
38.19
36.48
32.11
26.42
21.28
18.52
19.15
22.90
28.26
33.08
35.55
35.00
32.25
29.23
28.00
29.70
33.84
38.42
40.96
39.64
34.34
26.77
19.52
14.82
13.60
15.36
18.82
22.62
25.12
23.87
15.61
-2.62
-31.22
-66.21
-99.51
-122.03
-128.20
-119.00
-101.43
-84.50
-74.07
-69.85
-66.46
-57.78
-41.46
-20.75
-2.61
6.57
4.53
-5.90
-18.71
-28.19
-31.48
-29.25
-24.46
-20.09
-17.44
-15.68
-12.67
-6.37
3.79
16.23
27.94
35.79
37.96
34.73
28.26
21.51
16.81
15.04
15.46
16.49
16.58
14.90
11.42
6.47
0.23
-7.41
-16.64
-27.25
-38.21
-47.80
-54.04
-55.41
-51.43
-42.78
-31.09
-18.37
-6.48
3.24
10.13
14.11
15.49
14.81
12.70
9.84
6.99
4.90
4.22
5.30
8.02
11.82
15.88
19.43
21.96
23.34
23.69
23.13
21.59
18.80
14.47
8.52
1.29
-6.48
-13.83
-19.98
-24.67
-28.23
-31.51
-35.39
-40.37
-46.02
-51.21
-54.41
-54.31
-50.25
-42.46
-32.00
-20.45
-9.46
-0.18
6.82
11.48
14.13
15.30
15.56
15.37
14.97
14.48
14.22
14.56
15.74
17.84
20.88
24.87
29.76
35.41
41.60
48.92
57.71
67.54
77.10
84.87
89.64
90.85
88.51
83.05
76.77
71.45
67.29
62.90
56.77
48.66
39.83
32.43
28.55
31.99
44.40
63.90
85.74
105.12
119.53
129.01
135.11
139.49
146.62
159.26
177.08
197.34
217.63
237.80
259.19
282.71
285.55
252.18
183.48
97.61
15.39
-50.91
-97.69
-127.10
-143.97
-153.25
-153.96
-142.79
-117.77
-81.54
-42.07
-9.41
7.79
6.30
-9.99
-29.30
-40.15
-38.16
-26.31
-12.63
-4.13
-3.80
-10.04
-18.65
-23.99
-23.06
-16.60
-7.60
0.26
5.80
9.50
12.91
17.18
22.96
29.11
32.34
34.99
36.09
34.99
30.51
22.43
11.41
-1.17
-14.02
-26.15
-36.76
-46.27
-55.06
-65.91
-80.40
-98.28
-118.07
-138.23
-157.33
-174.43
-189.96
-205.00
-224.93
-253.80
-293.14
-342.27
-398.79
-457.56
-510.62
-548.57
-562.92
-553.88
-524.95
-481.52
-429.97
-376.56
-325.06
-276.57
-230.40
-158.70
-58.50
52.09
148.27
215.22
249.22
252.13
227.12
180.39
122.66
63.80
16.81
-7.35
-5.08
14.86
43.84
72.25
93.61
105.85
106.67
97.65
82.39
64.95
48.51
36.11
30.06
32.23
43.67
57.98
71.23
81.92
90.54
98.75
109.07
123.70
143.35
167.04
191.60
215.06
236.92
258.19
281.08
308.95
345.14
389.96
439.40
485.18
518.02
530.07
517.15
480.22
425.73
363.54
301.72
244.43
192.34
144.82
101.33
61.11
23.89
-16.83
-58.95
-95.84
-121.79
-135.76
-139.81
-136.31
-128.62
-121.51
-115.26
-107.80
-98.90
-90.28
-84.18
-82.01
-84.42
-90.98
-102.01
-115.65
-127.73
-136.16
-141.42
-145.28
-149.43
-154.81
-165.79
-185.75
-214.28
-247.28
-282.13
-318.55
-357.66
-400.62
-421.73
-405.98
-357.49
-294.47
-232.75
-180.16
-137.99
-104.66
-77.78
-55.22
-39.75
-34.27
-43.06
-59.93
-78.20
-91.29
-92.74
-77.43
-43.57
3.08
53.79
101.15
142.27
177.15
206.92
233.33
258.80
285.42
312.65
340.30
370.02
405.06
446.10
489.69
528.41
553.00
555.45
531.39
482.82
417.54
346.34
278.15
217.93
166.82
123.61
86.43
53.45
23.45
-4.43
-30.86
-56.68
-82.35
-107.65
-131.82
-154.22
-174.82
-194.34
-214.07
-235.56
-260.66
-291.09
-327.56
-368.60
-409.72
-443.69
-462.22
-458.82
-431.05
-381.12
-314.28
-236.31
-151.79
-64.54
20.50
95.65
150.92
176.90
168.92
130.00
70.73
5.83
-51.07
-91.72
-114.78
-124.38
-126.73
-126.95
-127.39
-127.78
-126.46
-121.73
-112.61
-99.06
-81.98
-62.95
-44.20
-28.09
-16.43
-9.69
-6.60
-4.47
-0.29
8.24
22.16
41.05
63.41
86.97
109.11
127.46
140.58
148.30
151.51
151.26
147.95
141.31
131.21
118.84
107.02
99.23
97.40
100.12
102.64
98.94
85.15
62.11
35.66
14.18
4.65
9.45
25.68
47.12
67.78
84.73
98.82
113.08
129.97
149.04
166.34
176.02
172.65
153.41
118.81
71.88
16.89
-41.74
-99.65
-152.11
-194.23
-221.74
-232.31
-226.36
-206.64
-176.70
-138.73
-92.70
-37.09
28.73
101.88
175.28
239.11
284.31
305.86
304.30
284.65
253.56
216.60
176.95
135.93
94.49
54.26
17.65
-13.37
-38.66
-60.71
-83.97
-113.21
-151.35
-197.85
-248.37
-295.74
-332.16
-351.69
-352.15
-335.83
-308.63
-277.88
-249.82
-227.88
-212.13
-200.32
-189.46
-177.17
-162.45
-145.57
-127.85
-111.04
-96.81
-86.01
-78.24
-71.87
-64.74
-55.26
-43.34
-30.51
-18.80
-9.36
-1.50
6.83
17.51
30.48
43.34
52.67
56.34
55.15
52.76
53.51
59.77
70.13
79.78
82.94
76.09
59.92
39.00
19.48
6.10
0.36
0.85
5.05
11.38
19.88
31.33
45.39
59.68
70.25
73.32
67.33
53.83
36.78
20.59
8.10
-0.32
-6.56
-13.63
-24.17
-39.31
-58.07
-77.86
-95.62
-109.34
-118.99
-126.16
-133.60
-143.94
-158.39
-176.35
-196.04
-215.71
-234.61
-252.94
-270.78
-287.85
-303.39
-316.29
-325.37
-329.75
-329.25
-324.77
-318.09
-310.29
-302.54
-296.18
-292.31
-291.20
-292.13
-294.03
-295.97
-297.31
-294.05
-282.72
-262.32
-234.58
-202.01
-166.42
-128.88
-90.27
-51.39
-6.13
49.93
115.73
184.75
249.72
306.30
353.11
390.42
419.07
450.94
495.06
551.47
611.48
665.40
708.34
740.31
763.77
781.75
811.02
864.03
940.97
1030.34
1119.12
1200.31
1273.27
1340.26
1315.13
1149.96
865.14
538.74
243.92
12.56
-156.16
-275.62
-360.60
-423.08
-457.67
-460.06
-435.68
-399.63
-367.02
-345.96
-337.15
-338.05
-345.47
-345.88
-329.32
-295.85
-255.44
-218.36
-194.15
-186.35
-194.40
-214.73
-235.09
-244.55
-239.13
-222.69
-202.15
-183.07
-167.77
-156.38
-147.83
-137.52
-122.26
-102.50
-82.06
-65.18
-54.66
-50.96
-53.35
-60.32
-68.87
-75.25
-76.72
-72.21
-62.03
-47.40
-29.80
-11.09
6.54
20.59
28.52
28.41
19.83
4.80
-12.48
-26.80
-34.22
-33.84
-28.20
-21.76
-18.59
-20.36
-25.76
-31.74
-35.55
-36.25
-35.03
-34.16
-35.46
-39.50
-45.58
-52.53
-59.47
-66.12
-72.42
-78.10
-82.48
-84.73
-84.30
-81.00
-74.72
-65.24
-52.12
-35.13
-14.80
7.20
28.44
46.40
59.36
66.98
70.12
70.11
67.93
63.61
56.27
44.72
28.19
6.95
-17.43
-42.33
-64.52
-80.86
-89.00
-87.82
-77.54
-59.60
-36.17
-9.61
18.05
45.34
71.33
95.16
115.66
130.93
138.59
136.49
123.74
101.49
72.95
42.60
14.80
-7.32
-22.55
-31.18
-34.30
-33.05
-28.28
-20.76
-11.49
-1.88
6.58
12.78
16.46
18.34
19.79
22.22
26.60
33.03
40.75
48.33
54.10
56.68
55.55
51.28
45.34
39.51
35.20
32.94
32.44
32.98
34.01
35.45
37.76
41.44
46.70
53.16
59.88
65.71
69.68
71.31
70.89
69.20
67.21
65.55
64.14
62.27
59.03
53.69
45.93
35.63
22.79
7.39
-10.15
-28.68
-46.24
-60.61
-70.34
-75.42
-77.42
-78.60
-80.60
-83.43
-85.61
-85.08
-80.63
-72.86
-64.11
-57.46
-55.44
-58.86
-66.50
-75.47
-82.23
-83.88
-79.18
-68.98
-55.84
-43.20
-34.13
-30.30
-31.58
-36.29
-42.05
-46.72
-49.11
-49.18
-47.73
-46.09
-45.73
-47.97
-53.70
-62.98
-74.72
-86.70
-95.94
-99.50
-95.46
-83.45
-64.74
-41.82
-17.54
5.54
25.68
41.95
54.15
62.54
67.73
70.49
71.61
71.82
71.64
71.34
70.86
69.92
67.95
64.22
57.88
48.27
35.29
19.77
3.53
-10.83
-20.52
-23.32
-18.10
-5.22
13.65
35.91
58.58
78.90
94.72
104.85
108.95
107.42
101.11
91.12
78.66
64.92
51.08
38.18
26.99
17.93
10.85
5.53
2.04
0.84
2.45
7.20
14.93
25.02
36.29
47.03
55.70
61.44
64.44
65.93
67.91
72.51
81.07
93.12
105.49
113.69
113.73
103.65
84.28
59.08
33.32
12.87
2.44
2.80
12.54
28.97
48.63
66.92
78.84
80.69
71.68
53.46
26.18
-8.33
-45.79
-80.36
-107.43
-124.81
-132.32
-130.66
-122.31
-115.77
-117.32
-127.38
-140.87
-152.45
-159.83
-164.31
-169.29
-180.61
-210.16
-264.70
-341.61
-430.43
-520.95
-607.49
-688.99
-766.22
-790.28
-729.18
-587.43
-402.77
-213.84
-43.21
100.57
209.35
293.24
356.09
391.15
393.21
363.96
312.25
245.42
172.53
108.81
71.28
68.81
95.38
139.10
187.40
237.65
284.18
317.42
330.15
320.16
288.39
237.16
173.50
108.55
54.06
16.37
-3.78
-9.90
-7.30
-2.13
0.12
-3.05
-10.73
-19.59
-25.73
-24.39
-11.69
12.88
45.66
79.97
109.16
129.09
138.22
137.44
130.16
120.31
111.34
104.41
101.59
106.24
121.22
144.33
169.34
188.36
193.83
181.66
150.86
107.37
61.80
24.42
-2.80
-24.13
-42.39
-61.11
-83.16
-113.07
-150.81
-191.26
-225.58
-248.23
-254.24
-239.41
-202.89
-127.18
-18.75
98.63
195.52
277.19
350.38
415.80
468.12
500.39
508.48
490.60
453.36
409.14
370.48
340.64
317.25
295.89
273.05
247.89
219.51
189.88
162.15
138.60
116.23
91.31
62.12
29.50
-3.81
-36.37
-66.64
-93.72
-117.82
-142.33
-170.37
-202.90
-238.38
-273.83
-306.96
-336.21
-361.17
-382.71
-403.60
-426.79
-454.35
-486.87
-522.99
-559.18
-589.47
-606.60
-604.51
-581.31
-540.22
-488.58
-435.12
-386.88
-346.90
-314.29
-285.95
-258.89
-231.78
-205.06
-179.74
-156.16
-133.46
-110.04
-84.62
-57.08
-28.75
-1.98
20.92
38.56
50.97
59.39
65.58
71.05
76.24
80.51
82.45
80.66
74.53
64.62
52.63
41.02
32.07
27.20
26.63
29.44
34.26
39.94
45.94
52.43
59.85
68.41
77.85
87.56
96.87
105.36
112.81
119.09
123.90
126.65
126.78
124.02
118.69
111.67
104.18
97.27
91.51
86.86
82.76
78.39
72.98
65.96
56.95
45.80
32.63
17.92
2.58
-12.14
-24.84
-34.39
-40.28
-42.67
-42.21
-39.75
-35.88
-30.70
-23.96
-15.55
-5.93
3.83
12.45
19.03
23.53
26.80
30.36
35.66
43.27
52.23
60.20
64.44
62.75
54.49
40.94
25.10
10.65
0.53
-4.19
-4.31
-1.04
4.13
9.47
12.85
12.26
6.71
-3.22
-15.43
-27.17
-35.29
-39.49
-43.91
-55.88
-81.48
-121.43
-170.02
-217.75
-255.30
-274.76
-273.15
-253.06
-220.77
-182.38
-141.31
-98.94
-56.55
-15.82
24.66
67.80
116.25
170.95
232.11
300.22
375.26
455.40
515.97
533.13
499.34
429.47
346.64
268.22
203.24
154.65
120.90
98.02
83.48
74.67
67.84
57.77
40.36
15.02
-13.47
-42.58
-68.16
-83.97
-85.74
-74.17
-55.57
-38.16
-27.92
-26.51
-32.11
-40.78
-47.87
-50.88
-50.58
-50.37
-53.52
-60.34
-68.73
-76.09
-79.98
-78.04
-67.97
-47.78
-17.43
21.75
66.92
113.32
154.70
185.42
202.45
205.98
198.32
181.02
156.82
130.11
105.94
87.89
77.08
72.18
70.43
68.27
59.94
42.62
17.52
-11.90
-42.98
-75.00
-108.23
-142.39
-176.96
-214.39
-254.65
-294.11
-327.46
-351.04
-364.29
-368.47
-365.12
-331.45
-261.18
-168.78
-78.50
-6.27
44.78
78.23
96.93
107.85
114.68
115.24
108.29
95.74
81.35
70.41
64.79
64.27
67.96
73.89
77.40
75.82
69.75
61.79
54.09
47.02
40.38
34.49
29.65
24.69
19.24
13.95
9.58
5.76
0.89
-6.30
-15.63
-25.91
-36.15
-45.17
-51.98
-56.24
-58.45
-59.87
-61.57
-64.05
-67.49
-72.00
-77.11
-81.59
-83.83
-82.58
-77.68
-70.32
-62.58
-56.81
-54.59
-56.24
-60.90
-67.15
-73.78
-80.26
-86.79
-93.90
-102.10
-111.58
-122.21
-133.71
-145.92
-158.83
-172.70
-187.86
-204.49
-222.62
-242.11
-262.85
-284.67
-306.93
-327.97
-344.81
-353.39
-349.68
-330.96
-296.87
-249.63
-193.35
-132.76
-72.02
-13.99
39.84
89.16
134.45
176.60
216.74
256.08
295.89
337.41
381.54
428.02
474.57
516.56
547.86
562.66
557.48
532.40
490.68
436.82
374.67
306.64
234.85
162.97
97.30
45.64
14.25
4.61
12.11
27.77
41.99
48.41
45.97
38.21
30.59
27.43
29.90
35.87
41.31
42.21
36.27
23.78
7.50
-8.40
-19.83
-24.42
-22.21
-15.34
-6.93
0.35
5.30
8.12
9.61
10.33
10.05
8.10
4.02
-1.73
-7.72
-12.09
-13.55
-12.15
-9.31
-7.23
-7.78
-11.64
-18.11
-25.75
-33.24
-40.15
-46.71
-53.12
-58.79
-62.15
-61.21
-54.71
-42.94
-27.76
-11.73
3.13
16.09
27.66
38.65
49.20
58.28
64.04
64.78
59.89
50.28
38.12
26.02
16.26
10.14
7.83
8.59
11.29
14.73
17.95
20.26
21.13
20.05
16.49
10.25
1.74
-7.66
-15.82
-20.44
-19.93
-14.14
-4.60
5.97
14.61
19.17
18.95
14.73
8.18
1.09
-5.32
-10.62
-14.95
-18.59
-21.56
-23.44
-23.52
-21.19
-16.30
-9.30
-1.21
6.71
13.27
17.61
19.31
18.45
15.49
11.32
7.08
4.10
3.42
5.45
9.58
14.22
17.20
16.67
11.79
3.16
-7.49
-18.01
-26.68
-32.68
-36.10
-37.37
-36.91
-34.92
-31.61
-27.47
-23.38
-20.37
-19.08
-19.46
-20.68
-21.58
-21.21
-19.28
-16.21
-12.86
-10.11
-8.47
-8.00
-8.42
-9.25
-10.04
-10.47
-10.49
-10.27
-10.19
-10.71
-12.32
-15.49
-20.60
-27.77
-36.73
-46.65
-56.12
-63.41
-66.91
-65.64
-59.56
-49.65
-37.55
-25.03
-13.50
-3.77
3.94
9.77
13.96
16.70
18.17
18.58
18.26
17.54
16.60
15.29
13.11
9.41
3.80
-3.68
-12.39
-21.34
-29.55
-36.32
-41.44
-45.29
-48.79
-53.48
-61.35
-74.38
-93.63
-118.30
-145.06
-168.44
-182.14
-180.99
-162.40
-127.02
-78.07
-20.28
41.14
100.97
154.06
195.85
223.20
235.20
233.39
221.32
203.30
183.01
162.62
142.36
121.56
99.66
77.07
55.10
35.57
20.08
9.59
4.20
2.89
4.34
7.68
12.56
18.72
25.58
32.23
37.69
41.44
42.55
41.03
38.42
37.13
38.92
43.72
49.53
53.19
51.72
41.17
20.58
-6.26
-31.72
-47.92
-49.72
-35.61
-7.34
31.09
70.44
101.66
119.32
122.59
112.94
92.66
64.75
32.77
0.05
-36.33
-80.13
-132.19
-189.46
-248.62
-308.09
-367.98
-429.11
-460.24
-440.06
-372.65
-284.34
-199.53
-128.97
-73.07
-28.62
7.82
38.95
61.60
72.93
74.17
71.10
69.23
71.72
78.96
90.31
104.81
117.82
125.69
125.93
123.65
123.40
127.70
136.44
148.70
163.33
176.81
186.26
191.21
193.94
196.70
200.97
206.48
212.70
219.02
223.63
224.86
221.89
214.89
202.97
190.22
177.51
165.07
152.75
139.84
125.69
110.11
93.70
77.14
61.19
45.76
30.86
16.47
2.48
-11.24
-24.71
-37.61
-49.44
-59.49
-67.72
-74.19
-79.32
-83.90
-88.84
-94.85
-102.06
-109.99
-117.67
-124.48
-130.16
-135.16
-140.63
-147.99
-158.36
-171.94
-187.85
-204.43
-220.17
-234.08
-246.36
-258.33
-272.04
-289.74
-313.12
-342.61
-376.75
-412.10
-443.82
-466.99
-478.49
-478.34
-469.98
-459.04
-451.25
-449.88
-454.94
-463.50
-470.85
-472.04
-463.42
-444.00
-415.89
-383.70
-352.41
-325.83
-305.35
-289.66
-275.74
-260.66
-243.17
-223.96
-204.89
-186.41
-167.90
-148.42
-127.68
-106.28
-85.44
-66.31
-49.26
-33.41
-13.97
13.43
50.04
93.39
139.10
182.97
221.88
253.95
278.47
301.48
328.02
358.45
388.20
411.72
425.86
430.26
426.31
416.10
411.21
420.72
445.92
480.24
515.64
547.65
575.50
600.15
622.77
656.30
710.42
785.23
871.44
958.60
1041.32
1119.08
1193.26
1188.64
1061.33
825.19
545.53
286.92
80.42
-71.41
-178.43
-252.60
-303.96
-328.42
-324.25
-299.49
-271.89
-258.87
-268.66
-298.91
-340.30
-381.77
-406.01
-403.97
-378.87
-343.88
-312.48
-291.33
-280.27
-276.32
-276.60
-274.45
-266.71
-254.44
-242.38
-234.94
-233.72
-238.19
-247.08
-258.43
-263.75
-257.72
-236.87
-201.97
-157.75
-111.33
-70.13
-39.62
-21.55
-13.28
-10.49
-8.85
-5.98
-1.34
5.01
12.72
21.66
31.73
41.60
49.61
55.47
60.07
64.87
71.31
80.00
90.58
101.98
111.11
115.69
116.06
114.98
116.29
123.49
138.35
159.93
184.21
202.09
204.89
188.44
154.71
110.42
64.24
23.13
-11.36
-38.83
-65.27
-97.40
-139.37
-190.71
-247.22
-301.83
-346.69
-374.87
-365.39
-310.88
-224.19
-133.09
-63.34
-28.52
-28.62
-54.78
-93.45
-130.93
-163.74
-190.43
-210.22
-222.30
-225.09
-215.48
-192.17
-157.42
-117.43
-82.05
-55.38
-37.75
-25.02
-9.30
18.18
61.20
116.90
177.89
235.45
286.62
333.03
377.51
404.99
403.99
373.57
324.46
269.82
216.82
169.31
137.77
117.83
107.59
108.84
122.16
144.94
172.25
189.39
189.15
169.60
132.50
84.85
36.38
-5.53
-38.10
-62.93
-83.55
-101.34
-116.77
-130.88
-143.37
-153.26
-160.28
-164.69
-166.72
-165.95
-160.15
-147.98
-130.53
-109.87
-88.46
-68.78
-52.49
-40.10
-31.21
-24.17
-17.80
-12.04
-6.85
-2.22
1.88
5.46
8.44
10.63
12.17
13.09
13.21
12.66
11.71
10.81
10.43
10.89
12.13
13.79
15.26
15.99
15.86
15.20
14.51
14.00
13.24
11.24
7.00
0.09
-8.85
-18.34
-26.68
-32.74
-36.48
-38.93
-41.61
-45.84
-52.13
-60.00
-68.24
-75.44
-80.42
-82.63
-82.16
-79.65
-76.13
-72.78
-70.77
-71.01
-73.81
-78.44
-82.78
-83.34
-75.81
-56.41
-23.26
22.49
76.56
132.53
183.57
224.09
250.80
262.66
260.26
244.96
218.64
183.86
144.13
103.86
67.57
38.72
18.72
6.63
-0.09
-4.39
-8.37
-12.79
-17.24
-20.93
-23.42
-24.94
-26.27
-28.19
-31.07
-34.78
-38.71
-42.16
-44.52
-45.46
-44.92
-42.99
-39.90
-35.91
-31.40
-26.79
-22.56
-19.18
-17.01
-16.27
-17.02
-19.22
-22.77
-27.55
-33.28
-39.43
-45.11
-49.20
-50.62
-48.66
-43.33
-35.39
-26.08
-16.77
-8.47
-1.75
3.32
6.88
9.11
10.12
9.98
8.87
7.15
5.30
3.79
2.87
2.53
2.53
2.55
2.40
2.17
2.21
2.91
4.56
7.09
10.08
12.78
14.43
14.36
12.15
7.66
1.17
-6.58
-14.38
-20.74
-24.25
-24.03
-20.13
-13.50
-5.70
1.65
7.34
10.89
12.38
12.25
10.91
8.65
5.65
2.06
-1.88
-5.82
-9.27
-11.78
-12.99
-12.88
-11.70
-9.98
-8.22
-6.73
-5.55
-4.49
-3.42
-2.48
-2.08
-2.74
-4.91
-8.72
-13.94
-19.99
-25.99
-30.79
-33.15
-32.01
-26.81
-17.86
-6.32
6.05
17.41
26.29
31.91
34.23
33.67
31.00
27.10
22.86
19.06
16.19
14.29
13.05
12.01
10.77
9.27
7.72
6.48
5.78
5.63
5.77
5.91
5.78
5.28
4.45
3.34
1.96
0.30
-1.65
-3.82
-6.12
-8.60
-11.41
-14.74
-18.55
-22.32
-25.10
-25.70
-23.23
-17.51
-9.28
0.03
8.84
15.91
20.64
23.09
23.72
23.11
21.75
20.05
18.28
16.64
15.17
13.85
12.57
11.29
10.08
9.17
8.86
9.35
10.66
12.56
14.60
16.27
17.13
16.89
15.47
13.03
9.89
6.43
2.99
-0.20
-3.05
-5.56
-7.80
-9.84
-11.71
-13.30
-14.39
-14.62
-13.66
-11.31
-7.59
-2.73
2.92
9.05
15.27
21.18
26.20
29.70
31.16
30.49
28.17
25.22
22.91
22.40
24.41
28.93
35.01
40.66
43.10
39.50
28.07
9.08
-14.80
-39.20
-59.44
-72.26
-76.78
-74.47
-68.11
-60.50
-53.47
-47.68
-43.05
-39.36
-36.66
-35.28
-35.52
-37.23
-39.68
-41.65
-41.83
-39.36
-34.22
-27.26
-19.96
-13.79
-9.71
-7.86
-7.71
-8.49
-9.65
-11.12
-13.21
-16.16
-19.80
-23.39
-25.87
-26.31
-24.36
-20.43
-15.37
-10.08
-4.98
0.08
5.59
11.94
19.01
26.14
32.42
37.11
40.08
41.78
42.98
44.33
46.08
47.99
49.47
49.91
48.95
46.67
43.60
40.62
38.73
38.76
41.05
45.31
50.63
55.78
59.48
60.80
59.22
54.71
47.57
38.39
27.95
17.18
6.97
-1.96
-9.23
-14.85
-19.11
-22.38
-24.91
-26.72
-27.71
-27.72
-26.75
-25.02
-22.87
-20.74
-18.99
-17.90
-17.61
-18.11
-19.28
-20.81
-22.37
-23.68
-24.75
-25.83
-27.30
-29.34
-31.74
-33.75
-34.40
-32.87
-28.89
-22.86
-15.70
-8.49
-2.08
3.09
7.00
9.78
11.60
12.56
12.72
12.25
11.34
10.23
9.01
7.61
5.88
3.67
1.09
-1.51
-3.67
-5.04
-5.52
-5.34
-4.86
-4.44
-4.25
-4.34
-4.68
-5.27
-6.15
-7.41
-9.14
-11.44
-14.28
-17.53
-20.77
-23.40
-24.68
-23.98
-21.02
-15.98
-9.52
-2.56
4.01
9.56
13.79
16.64
18.19
18.56
17.92
16.46
14.47
12.24
10.03
8.03
6.35
5.05
4.16
3.71
3.70
4.04
4.54
4.98
5.14
4.86
4.08
2.78
0.99
-1.22
-3.69
-6.26
-8.78
-11.28
-13.90
-16.85
-20.13
-23.37
-25.86
-26.76
-25.42
-21.68
-15.98
-9.21
-2.39
3.62
8.39
11.86
14.19
15.60
16.25
16.14
15.29
13.72
11.53
8.95
6.26
3.79
1.82
0.54
0.07
0.36
1.24
2.37
3.29
3.61
3.07
1.64
-0.49
-2.94
-5.33
-7.31
-8.81
-10.04
-11.40
-13.32
-16.01
-19.22
-22.22
-24.00
-23.61
-20.55
-15.04
-7.92
-0.38
6.46
11.90
15.72
18.10
19.31
19.58
18.95
17.41
15.03
12.06
8.93
6.16
4.11
2.95
2.61
2.94
3.70
4.71
5.72
6.44
6.55
5.83
4.20
1.79
-1.11
-4.15
-7.05
-9.70
-12.14
-14.52
-16.96
-19.41
-21.62
-23.17
-23.57
-22.43
-19.68
-15.57
-10.63
-5.52
-0.82
3.12
6.16
8.30
9.67
10.35
10.43
9.95
8.95
7.50
5.76
3.93
2.24
0.93
0.17
0.06
0.57
1.54
2.70
3.72
4.29
4.22
3.42
1.94
-0.08
-2.41
-4.77
-6.92
-8.79
-10.51
-12.40
-14.79
-17.77
-20.97
-23.63
-24.77
-23.56
-19.69
-13.54
-6.01
1.77
8.82
14.48
18.54
21.05
22.26
22.42
21.82
20.70
19.31
17.86
16.49
15.28
14.19
13.17
12.21
11.39
10.86
10.78
11.16
11.83
12.41
12.44
11.52
9.50
6.55
3.02
-0.55
-3.75
-6.30
-8.34
-10.23
-12.48
-15.47
-19.16
-23.05
-26.25
-27.73
-26.71
-22.97
-16.91
-9.45
-1.71
5.34
11.12
15.42
18.33
20.03
20.69
20.44
19.41
17.81
15.94
14.14
12.71
11.75
11.24
11.07
11.13
11.41
11.92
12.63
13.36
13.77
13.47
12.18
9.86
6.76
3.32
0.07
-2.61
-4.56
-5.87
-6.82
-7.86
-9.43
-11.82
-15.02
-18.60
-21.83
-23.82
-23.80
-21.40
-16.76
-10.50
-3.51
3.30
9.29
14.13
17.80
20.47
22.33
23.46
23.89
23.63
22.79
21.60
20.36
19.32
18.57
18.08
17.80
17.72
17.90
18.44
19.39
20.67
22.09
23.33
24.02
23.74
22.12
18.96
14.33
8.62
2.52
-3.21
-7.92
-11.23
-13.12
-13.96
-14.37
-15.05
-16.53
-18.96
-21.94
-24.63
-25.97
-25.04
-21.39
-15.25
-7.39
1.05
8.84
14.97
18.76
19.92
18.63
15.40
11.01
6.24
1.76
-2.04
-5.00
-7.15
-8.59
-9.47
-9.90
-9.98
-9.79
-9.36
-8.70
-7.80
-6.72
-5.59
-4.66
-4.20
-4.43
-5.40
-6.98
-8.85
-10.63
-11.95
-12.58
-12.43
-11.61
-10.38
-8.99
-7.81
-7.19
-7.50
-9.03
-11.81
-15.47
-19.19
-21.86
-22.43
-20.31
-15.59
-9.09
-2.02
4.52
9.83
13.77
16.55
18.49
19.75
20.30
20.07
19.05
17.41
15.48
13.63
12.10
10.99
10.29
9.96
10.02
10.51
11.41
12.57
13.66
14.29
14.10
12.94
10.87
8.14
5.06
1.91
-1.11
-3.84
-6.17
-7.98
-9.22
-9.96
-10.40
-10.87
-11.76
-13.36
-15.81
-18.93
-22.25
-25.08
-26.64
-26.30
-23.78
-19.28
-13.42
-7.04
-0.93
4.42
8.80
12.26
14.86
16.59
17.38
17.12
15.89
13.97
11.80
9.86
8.45
7.65
7.38
7.46
7.77
8.25
8.89
9.62
10.28
10.62
10.37
9.35
7.51
4.98
2.03
-1.01
-3.81
-6.14
-7.91
-9.21
-10.20
-11.07
-11.96
-13.05
-14.54
-16.60
-19.34
-22.56
-25.74
-28.05
-28.63
-26.92
-22.89
-17.12
-10.53
-4.07
1.60
6.27
9.98
12.90
15.10
16.47
16.86
16.18
14.61
12.53
10.46
8.84
7.90
7.59
7.74
8.13
8.63
9.19
9.78
10.29
10.51
10.17
9.08
7.18
4.59
1.62
-1.39
-4.09
-6.25
-7.81
-8.86
-9.53
-10.05
-10.68
-11.74
-13.52
-16.14
-19.47
-23.06
-26.13
-27.84
-27.53
-24.95
-20.39
-14.56
-8.37
-2.56
2.44
6.55
9.85
12.40
14.16
15.00
14.83
13.79
12.18
10.44
8.94
7.87
7.27
7.06
7.18
7.58
8.18
8.84
9.33
9.43
9.01
8.02
6.51
4.56
2.26
-0.26
-2.83
-5.26
-7.38
-9.08
-10.40
-11.43
-12.33
-13.29
-14.53
-16.28
-18.63
-21.54
-24.65
-27.37
-28.95
-28.72
-26.31
-21.77
-15.63
-8.64
-1.67
4.56
9.58
13.17
15.29
16.07
15.74
14.63
13.11
11.53
10.20
9.27
8.69
8.30
7.92
7.45
6.95
6.55
6.42
6.61
7.01
7.39
7.46
6.90
5.47
3.11
-0.05
-3.58
-6.93
-9.49
-10.81
-10.75
-9.54
-7.80
-6.39
-6.10
-7.45
-10.50
-14.75
-19.28
-22.98
-24.88
-24.41
-21.51
-16.65
-10.58
-4.12
2.03
7.31
11.27
13.61
14.11
12.85
10.31
7.36
5.12
4.66
6.60
10.85
16.66
22.81
28.13
31.76
33.41
33.26
31.70
29.13
25.82
21.90
17.46
12.65
7.76
3.13
-0.90
-4.17
-6.67
-8.60
-10.20
-11.69
-13.26
-15.09
-17.37
-20.28
-23.82
-27.72
-31.38
-33.98
-34.69
-33.01
-28.93
-22.96
-15.94
-8.72
-1.99
3.86
8.64
12.31
14.84
16.26
16.65
16.19
15.13
13.80
12.52
11.51
10.90
10.72
10.89
11.31
11.89
12.55
13.25
13.91
14.42
14.62
14.28
13.23
11.37
8.75
5.53
1.95
-1.74
-5.23
-8.25
-10.55
-12.03
-12.76
-13.10
-13.59
-14.82
-17.17
-20.56
-24.45
-27.90
-29.92
-29.76
-27.12
-22.23
-15.69
-8.27
-0.71
6.45
12.79
17.99
21.80
24.08
24.82
24.19
22.54
20.27
17.77
15.36
13.25
11.50
10.19
9.29
8.78
8.57
8.51
8.41
8.01
7.08
5.42
2.94
-0.28
-4.01
-7.88
-11.50
-14.55
-16.85
-18.41
-19.32
-19.75
-19.87
-19.93
-20.25
-21.22
-23.16
-26.12
-29.73
-33.23
-35.55
-35.74
-33.28
-28.31
-21.57
-14.13
-6.95
-0.66
4.60
8.92
12.40
15.00
16.49
16.60
15.24
12.66
9.52
6.77
5.31
5.77
8.29
12.48
17.54
22.51
26.51
28.91
29.40
27.96
24.82
20.32
14.93
9.18
3.58
-1.44
-5.62
-8.93
-11.57
-13.87
-16.23
-19.02
-22.38
-26.13
-29.76
-32.54
-33.65
-32.49
-28.84
-22.98
-15.62
-7.73
-0.25
6.11
10.97
14.24
16.07
16.73
16.64
16.30
16.20
16.69
17.88
19.54
21.23
22.44
22.84
22.39
21.31
19.98
18.73
17.69
16.78
15.75
14.30
12.25
9.58
6.46
3.20
0.05
-2.77
-5.20
-7.29
-9.20
-11.19
-13.62
-16.81
-20.85
-25.48
-29.95
-33.21
-34.18
-32.17
-27.13
-19.74
-11.17
-2.71
4.59
10.21
14.06
16.40
17.53
17.71
17.08
15.76
13.99
12.11
10.54
9.60
9.37
9.71
10.39
11.17
11.96
12.79
13.69
14.55
15.06
14.78
13.33
10.59
6.78
2.44
-1.75
-5.26
-7.78
-9.41
-10.54
-11.70
-13.43
-16.03
-19.51
-23.52
-27.40
-30.30
-31.42
-30.16
-26.36
-20.34
-12.82
-4.79
2.82
9.23
13.99
16.98
18.32
18.33
17.38
15.86
14.10
12.44
11.17
10.47
10.39
10.84
11.61
12.44
13.14
13.58
13.79
13.81
13.60
13.07
11.98
10.15
7.52
4.28
0.81
-2.41
-5.01
-6.80
-7.84
-8.47
-9.21
-10.61
-13.12
-16.83
-21.39
-25.98
-29.48
-30.79
-29.21
-24.68
-17.83
-9.74
-1.57
5.78
11.85
16.53
19.83
21.79
22.43
21.78
20.06
17.70
15.25
13.23
11.93
11.39
11.42
11.74
12.12
12.40
12.53
12.50
12.28
11.83
11.03
9.73
7.77
5.12
1.90
-1.57
-4.86
-7.56
-9.46
-10.60
-11.27
-11.89
-12.89
-14.62
-17.26
-20.76
-24.76
-28.68
-31.75
-33.18
-32.42
-29.26
-23.95
-17.12
-9.61
-2.24
4.32
9.62
13.45
15.79
16.72
16.45
15.24
13.44
11.49
9.79
8.70
8.35
8.69
9.49
10.48
11.47
12.39
13.23
13.90
14.21
13.83
12.47
10.05
6.77
3.08
-0.53
-3.66
-6.11
-7.92
-9.28
-10.49
-11.86
-13.66
-16.01
-18.85
-21.85
-24.39
-25.71
-25.11
-22.19
-17.06
-10.35
-3.00
3.98
9.82
14.15
16.95
18.45
18.91
18.53
17.46
15.84
13.90
11.92
10.17
8.80
7.90
7.46
7.45
7.86
8.59
9.48
10.28
10.64
10.29
9.06
7.02
4.39
1.53
-1.26
-3.74
-5.84
-7.60
-9.21
-10.90
-12.95
-15.53
-18.62
-21.90
-24.82
-26.63
-26.65
-24.45
-20.04
-13.90
-6.80
0.39
6.89
12.17
15.97
18.25
19.14
18.89
17.82
16.25
14.57
13.08
12.05
11.57
11.59
11.89
12.24
12.41
12.35
12.08
11.67
11.14
10.38
9.18
7.31
4.71
1.55
-1.80
-4.88
-7.37
-9.14
-10.37
-11.41
-12.69
-14.56
-17.18
-20.48
-24.09
-27.39
-29.61
-30.04
-28.14
-23.86
-17.59
-10.10
-2.32
4.95
11.16
16.07
19.64
21.91
22.96
22.90
21.93
20.37
18.58
16.92
15.59
14.68
14.23
14.23
14.66
15.43
16.33
17.04
17.21
16.57
15.03
12.75
10.02
7.27
4.82
2.90
1.49
0.38
-0.70
-2.05
-3.79
-5.92
-8.26
-10.63
-12.82
-14.72
-16.34
-17.81
-19.45
-21.60
-24.52
-28.16
-32.09
-35.54
-37.58
-37.47
-34.90
-30.08
-23.60
-16.25
-8.74
-1.65
4.64
9.80
13.57
15.75
16.32
15.44
13.54
11.31
9.62
9.34
11.15
15.26
21.36
28.60
35.86
42.05
46.40
48.63
48.84
47.39
44.61
40.80
36.16
30.90
25.34
19.81
14.62
9.91
5.63
1.61
-2.39
-6.56
-10.99
-15.61
-20.23
-24.57
-28.28
-31.09
-32.84
-33.53
-33.38
-32.75
-32.04
-31.60
-31.56
-31.73
-31.57
-30.33
-27.31
-22.10
-14.89
-6.39
2.33
10.19
16.43
20.72
23.04
23.56
22.51
20.17
16.87
13.13
9.51
6.50
4.39
3.14
2.53
2.24
1.98
1.56
0.83
-0.33
-2.01
-4.23
-6.84
-9.56
-12.02
-13.87
-14.94
-15.24
-14.99
-14.52
-14.14
-14.03
-14.24
-14.68
-15.26
-15.95
-16.76
-17.79
-19.17
-21.03
-23.34
-25.91
-28.33
-30.03
-30.34
-28.74
-25.00
-19.29
-12.21
-4.54
2.91
9.58
15.21
19.77
23.30
25.80
27.19
27.39
26.40
24.42
21.85
19.17
16.82
15.09
14.04
13.60
13.55
13.66
13.70
13.49
12.91
11.92
10.53
8.76
6.61
4.06
1.08
-2.26
-5.74
-9.01
-11.68
-13.47
-14.33
-14.43
-14.14
-13.89
-14.06
-14.92
-16.60
-19.05
-21.94
-24.65
-26.31
-26.05
-23.29
-18.03
-10.89
-2.88
4.93
11.74
17.14
21.03
23.50
24.65
24.54
23.34
21.32
18.85
16.36
14.20
12.54
11.39
10.68
10.31
10.24
10.35
10.51
10.49
10.01
8.87
6.97
4.38
1.26
-2.12
-5.49
-8.59
-11.20
-13.17
-14.45
-15.14
-15.49
-15.93
-16.92
-18.82
-21.73
-25.37
-29.14
-32.17
-33.58
-32.69
-29.25
-23.54
-16.28
-8.42
-0.89
5.63
10.75
14.40
16.65
17.62
17.48
16.38
14.58
12.45
10.42
8.91
8.18
8.23
8.86
9.74
10.53
11.03
11.18
11.04
10.67
10.05
9.08
7.64
5.65
3.14
0.26
-2.74
-5.62
-8.16
-10.23
-11.84
-13.14
-14.42
-16.03
-18.22
-21.04
-24.22
-27.20
-29.23
-29.59
-27.75
-23.60
-17.47
-10.07
-2.30
4.99
11.16
15.85
18.94
20.47
20.56
19.45
17.45
15.05
12.75
11.02
10.13
10.13
10.83
11.91
13.05
13.97
14.50
14.60
14.29
13.58
12.44
10.75
8.39
5.35
1.79
-1.92
-5.33
-8.04
-9.90
-10.97
-11.57
-12.08
-12.91
-14.40
-16.76
-19.96
-23.70
-27.35
-30.07
-30.99
-29.51
-25.52
-19.49
-12.26
-4.84
1.90
7.37
11.32
13.74
14.78
14.67
13.73
12.27
10.63
9.05
7.71
6.69
6.03
5.72
5.78
6.19
6.90
7.76
8.57
9.09
9.08
8.37
6.87
4.64
1.91
-1.02
-3.77
-6.09
-7.83
-9.04
-9.91
-10.73
-11.80
-13.39
-15.66
-18.57
-21.80
-24.72
-26.50
-26.34
-23.77
-18.78
-11.97
-4.28
3.25
9.75
14.73
18.05
19.81
20.23
19.55
18.02
15.96
13.76
11.87
10.64
10.27
10.69
11.63
12.73
13.66
14.27
14.56
14.59
14.38
13.86
12.86
11.17
8.72
5.60
2.11
-1.37
-4.47
-6.93
-8.72
-10.05
-11.33
-13.00
-15.39
-18.54
-22.06
-25.25
-27.25
-27.27
-24.94
-20.34
-14.02
-6.78
0.54
7.27
12.94
17.27
20.13
21.48
21.45
20.34
18.62
16.82
15.35
14.48
14.19
14.34
14.70
15.10
15.40
15.56
15.51
15.22
14.60
13.63
12.28
10.52
8.33
5.69
2.67
-0.62
-3.95
-7.05
-9.68
-11.66
-13.05
-14.11
-15.27
-16.98
-19.59
-23.13
-27.20
-31.02
-33.58
-33.89
-31.39
-26.07
-18.56
-9.93
-1.38
6.13
11.98
16.04
18.47
19.61
19.76
19.18
18.04
16.55
14.99
13.68
12.95
13.00
13.80
15.13
16.59
17.82
18.59
18.80
18.47
17.66
16.32
14.39
11.77
8.49
4.74
0.84
-2.86
-6.07
-8.60
-10.46
-11.75
-12.66
-13.44
-14.37
-15.80
-17.99
-21.01
-24.66
-28.36
-31.22
-32.31
-30.88
-26.71
-20.15
-12.08
-3.62
4.22
10.75
15.68
19.05
21.02
21.77
21.43
20.16
18.24
16.08
14.19
13.01
12.80
13.51
14.84
16.36
17.62
18.29
18.25
17.56
16.40
14.97
13.39
11.67
9.71
7.42
4.78
1.90
-1.05
-3.85
-6.39
-8.66
-10.69
-12.54
-14.31
-16.08
-18.07
-20.49
-23.48
-26.97
-30.53
-33.42
-34.79
-33.97
-30.72
-25.30
-18.40
-10.91
-3.69
2.63
7.72
11.46
13.88
15.01
14.92
13.72
11.68
9.22
6.87
5.17
4.44
4.74
5.82
7.23
8.51
9.31
9.44
8.89
7.75
6.15
4.23
2.10
-0.15
-2.46
-4.76
-6.95
-8.90
-10.48
-11.59
-12.22
-12.50
-12.69
-13.15
-14.17
-15.94
-18.39
-21.19
-23.75
-25.34
-25.28
-23.07
-18.66
-12.38
-4.95
2.68
9.63
15.16
18.89
20.79
21.11
20.29
18.79
16.99
15.15
13.45
12.05
11.09
10.71
10.94
11.66
12.62
13.52
14.10
14.23
13.84
12.93
11.42
9.23
6.34
2.88
-0.90
-4.61
-7.89
-10.48
-12.30
-13.46
-14.24
-15.03
-16.23
-18.18
-20.92
-24.20
-27.40
-29.65
-30.11
-28.21
-23.82
-17.34
-9.61
-1.60
5.75
11.77
16.11
18.75
19.83
19.64
18.49
16.70
14.61
12.59
10.96
9.95
9.66
9.99
10.70
11.53
12.25
12.74
12.94
12.84
12.40
11.51
10.10
8.14
5.69
2.92
0.04
-2.75
-5.33
-7.64
-9.65
-11.37
-12.87
-14.31
-16.00
-18.20
-21.07
-24.49
-27.96
-30.70
-31.83
-30.70
-27.04
-21.13
-13.61
-5.36
2.75
9.98
15.75
19.72
21.80
22.14
21.11
19.23
17.01
14.89
13.16
12.04
11.59
11.81
12.58
13.67
14.73
15.43
15.54
15.00
13.92
12.47
10.81
8.99
7.00
4.81
2.40
-0.12
-2.59
-4.86
-6.83
-8.47
-9.88
-11.19
-12.61
-14.37
-16.72
-19.81
-23.57
-27.59
-31.13
-33.22
-32.97
-29.90
-24.14
-16.40
-7.77
0.64
7.95
13.64
17.56
19.79
20.53
20.04
18.62
16.57
14.29
12.17
10.57
9.72
9.69
10.35
11.40
12.48
13.31
13.76
13.81
13.51
12.84
11.71
9.97
7.55
4.53
1.21
-2.05
-4.90
-7.16
-8.85
-10.10
-11.15
-12.23
-13.62
-15.57
-18.26
-21.66
-25.43
-28.84
-30.98
-30.98
-28.34
-23.18
-16.19
-8.37
-0.75
5.97
11.42
15.49
18.18
19.49
19.41
18.07
15.81
13.17
10.78
9.13
8.42
8.57
9.27
10.17
10.96
11.50
11.73
11.65
11.24
10.42
9.06
7.00
4.20
0.74
-3.12
-7.00
-10.50
-13.34
-15.42
-16.89
-18.05
-19.28
-20.92
-23.21
-26.20
-29.66
-33.05
-35.62
-36.57
-35.24
-31.38
-25.21
-17.40
-8.85
-0.49
6.93
12.88
17.09
19.51
20.20
19.44
17.57
15.06
12.45
10.27
8.93
8.63
9.32
10.72
12.40
13.92
14.96
15.35
15.02
13.96
12.17
9.62
6.36
2.53
-1.56
-5.54
-9.01
-11.73
-13.68
-15.06
-16.29
-17.78
-19.86
-22.54
-25.48
-27.98
-29.13
-28.14
-24.57
-18.54
-10.74
-2.18
6.08
13.21
18.72
22.44
24.43
24.88
24.00
22.13
19.66
17.09
14.90
13.46
12.94
13.27
14.18
15.30
16.29
16.91
17.05
16.68
15.79
14.33
12.24
9.54
6.35
2.92
-0.46
-3.54
-6.17
-8.38
-10.44
-12.72
-15.57
-19.17
-23.34
-27.52
-30.81
-32.26
-31.12
-27.14
-20.63
-12.38
-3.48
4.99
12.18
17.55
20.96
22.56
22.63
21.56
19.71
17.49
15.33
13.68
12.87
13.01
13.93
15.21
16.41
17.19
17.44
17.27
16.82
16.16
15.17
13.65
11.42
8.49
5.08
1.54
-1.75
-4.56
-6.78
-8.48
-9.84
-11.18
-12.87
-15.25
-18.53
-22.61
-27.01
-30.88
-33.21
-33.10
-30.10
-24.39
-16.70
-8.10
0.35
7.76
13.65
17.80
20.26
21.19
20.85
19.55
17.69
15.65
13.78
12.33
11.44
11.15
11.47
12.35
13.65
15.17
16.59
17.54
17.70
16.86
15.02
12.39
9.32
6.25
3.54
1.39
-0.22
-1.52
-2.86
-4.53
-6.68
-9.24
-11.94
-14.50
-16.79
-18.94
-21.30
-24.29
-28.10
-32.55
-36.96
-40.31
-41.43
-39.28
-33.30
-23.57
-10.92
3.21
17.02
28.81
37.32
42.01
43.03
41.08
37.05
31.87
26.31
21.01
16.49
13.12
11.09
10.32
10.48
11.10
11.68
11.85
11.41
10.34
8.73
6.73
4.46
2.01
-0.57
-3.24
-5.95
-8.57
-10.93
-12.90
-14.40
-15.54
-16.50
-17.53
-18.79
-20.33
-22.13
-24.16
-26.46
-29.08
-31.97
-34.84
-37.13
-38.05
-36.90
-33.32
-27.42
-19.86
-11.54
-3.42
3.76
9.60
13.98
16.93
18.50
18.73
17.71
15.72
13.21
10.77
8.97
8.19
8.49
9.64
11.23
12.82
14.07
14.78
14.88
14.35
13.25
11.61
9.50
7.01
4.25
1.36
-1.51
-4.21
-6.58
-8.51
-9.98
-11.12
-12.22
-13.66
-15.82
-18.90
-22.77
-26.95
-30.66
-33.01
-33.20
-30.79
-25.83
-18.85
-10.74
-2.48
5.07
11.36
16.12
19.36
21.20
21.79
21.29
19.91
17.97
15.91
14.20
13.23
13.19
14.00
15.38
16.95
18.28
19.09
19.19
18.55
17.24
15.38
13.10
10.53
7.74
4.76
1.65
-1.46
-4.41
-7.00
-9.10
-10.71
-11.99
-13.28
-14.96
-17.35
-20.59
-24.53
-28.67
-32.22
-34.27
-33.99
-30.96
-25.31
-17.73
-9.26
-0.97
6.31
12.14
16.39
19.15
20.59
20.83
20.04
18.43
16.36
14.30
12.72
11.97
12.20
13.28
14.89
16.53
17.79
18.37
18.21
17.42
16.21
14.71
12.99
11.01
8.72
6.13
3.30
0.35
-2.61
-5.47
-8.13
-10.47
-12.40
-13.90
-15.11
-16.37
-18.13
-20.73
-24.22
-28.19
-31.83
-34.11
-34.14
-31.48
-26.25
-19.11
-11.01
-2.87
4.55
10.73
15.39
18.40
19.77
19.67
18.44
16.57
14.60
12.96
11.97
11.67
11.96
12.54
13.11
13.42
13.34
12.90
12.23
11.51
10.75
9.86
8.64
6.88
4.50
1.59
-1.62
-4.81
-7.70
-10.08
-11.90
-13.24
-14.36
-15.69
-17.63
-20.44
-24.06
-28.05
-31.64
-33.96
-34.27
-32.15
-27.64
-21.18
-13.52
-5.51
1.97
8.23
12.75
15.30
15.96
15.05
13.04
10.49
7.89
5.65
4.07
3.30
3.37
4.17
5.46
6.91
8.17
8.97
9.12
8.60
7.47
5.80
3.68
1.16
-1.61
-4.43
-7.03
-9.13
-10.60
-11.55
-12.33
-13.46
-15.43
-18.44
-22.27
-26.23
-29.31
-30.48
-29.03
-24.82
-18.29
-10.33
-2.00
5.75
12.24
17.10
20.22
21.66
21.60
20.32
18.24
15.84
13.60
11.89
10.87
10.51
10.70
11.27
12.13
13.17
14.26
15.15
15.51
14.98
13.33
10.56
6.91
2.87
-1.06
-4.44
-7.06
-8.95
-10.41
-11.83
-13.63
-16.11
-19.30
-22.93
-26.40
-28.94
-29.69
-28.04
-23.78
-17.27
-9.33
-1.05
6.52
12.66
17.03
19.66
20.80
20.79
19.94
18.55
16.94
15.43
14.33
13.77
13.77
14.14
14.63
15.04
15.28
15.38
15.40
15.33
15.07
14.36
12.96
10.75
7.78
4.30
0.68
-2.72
-5.62
-7.88
-9.55
-10.92
-12.46
-14.66
-17.86
-22.01
-26.57
-30.58
-32.92
-32.71
-29.58
-23.83
-16.31
-8.14
-0.36
6.32
11.54
15.27
17.66
18.88
19.16
18.72
17.88
16.93
16.16
15.77
15.81
16.22
16.86
17.62
18.38
19.08
19.62
19.88
19.69
18.86
17.30
15.04
12.30
9.42
6.74
4.50
2.74
1.35
0.07
-1.31
-2.99
-5.03
-7.41
-10.02
-12.67
-15.15
-17.34
-19.26
-21.14
-23.35
-26.20
-29.74
-33.60
-36.98
-38.89
-38.46
-35.29
-29.58
-22.09
-13.85
-5.90
1.01
6.49
10.53
13.36
15.31
16.73
17.88
18.89
19.80
20.57
21.17
21.57
21.79
21.85
21.77
21.55
21.18
20.63
19.87
18.81
17.28
15.18
12.45
9.19
5.66
2.26
-0.62
-2.63
-3.67
-3.88
-3.62
-3.38
-3.57
-4.36
-5.64
-7.08
-8.34
-9.26
-10.03
-11.07
-12.91
-15.86
-19.88
-24.42
-28.64
-31.53
-32.26
-30.41
-26.05
-19.75
-12.44
-5.09
1.44
6.63
10.29
12.51
13.47
13.47
12.75
11.59
10.32
9.23
8.57
8.50
9.04
10.10
11.49
13.01
14.40
15.46
16.01
15.92
15.13
13.71
11.77
9.53
7.26
5.16
3.41
1.99
0.81
-0.32
-1.59
-3.09
-4.83
-6.74
-8.71
-10.68
-12.65
-14.70
-16.94
-19.51
-22.49
-25.77
-29.00
-31.54
-32.63
-31.59
-28.07
-22.21
-14.64
-6.31
1.80
8.88
14.46
18.39
20.78
21.86
21.86
21.04
19.72
18.24
16.98
16.25
16.22
16.89
18.04
19.37
20.60
21.52
22.04
22.11
21.68
20.64
18.96
16.67
13.95
11.13
8.50
6.26
4.39
2.73
1.04
-0.89
-3.09
-5.48
-7.85
-10.02
-11.87
-13.43
-14.84
-16.33
-18.14
-20.46
-23.35
-26.63
-29.83
-32.24
-33.03
-31.54
-27.50
-21.20
-13.39
-5.10
2.67
9.19
14.12
17.47
19.43
20.23
20.12
19.33
18.14
16.87
15.85
15.31
15.35
15.88
16.70
17.59
18.37
18.94
19.24
19.25
18.87
18.00
16.55
14.51
12.01
9.30
6.71
4.53
2.95
1.91
1.14
0.22
-1.21
-3.30
-5.97
-8.89
-11.72
-14.19
-16.23
-17.90
-19.31
-20.58
-21.84
-23.27
-25.13
-27.59
-30.57
-33.59
-35.80
-36.23
-34.14
-29.36
-22.35
-14.05
-5.56
2.23
8.78
13.87
17.47
19.63
20.41
19.98
18.63
16.76
14.82
13.17
12.05
11.56
11.71
12.48
13.77
15.42
17.10
18.48
19.25
19.25
18.50
17.12
15.27
13.09
10.76
8.44
6.33
4.57
3.17
2.02
0.93
-0.21
-1.46
-2.74
-4.02
-5.30
-6.68
-8.23
-9.99
-11.87
-13.73
-15.44
-16.94
-18.28
-19.61
-21.16
-23.16
-25.81
-29.13
-32.83
-36.29
-38.67
-39.08
-36.97
-32.26
-25.42
-17.26
-8.75
-0.73
6.16
11.50
15.03
16.69
16.64
15.21
12.93
10.41
8.19
6.71
6.15
6.47
7.49
8.91
10.45
11.87
13.06
13.96
14.57
14.80
14.59
13.84
12.52
10.74
8.74
6.74
4.93
3.36
1.96
0.63
-0.75
-2.23
-3.83
-5.55
-7.38
-9.29
-11.15
-12.82
-14.18
-15.28
-16.37
-17.82
-19.97
-22.87
-26.20
-29.27
-31.19
-31.23
-29.02
-24.60
-18.40
-11.08
-3.35
4.11
10.69
15.94
19.49
21.23
21.26
19.94
17.79
15.43
13.35
11.85
11.01
10.76
11.00
11.61
12.57
13.77
15.07
16.25
17.01
17.11
16.40
14.91
12.77
10.20
7.47
4.78
2.28
0.03
-2.02
-3.94
-5.83
-7.74
-9.68
-11.59
-13.38
-14.99
-16.36
-17.54
-18.71
-20.14
-22.16
-24.90
-28.22
-31.61
-34.21
-35.11
-33.60
-29.48
-23.06
-15.10
-6.57
1.62
8.73
14.31
18.14
20.23
20.75
20.01
18.39
16.30
14.16
12.38
11.25
10.99
11.61
12.95
14.70
16.46
17.88
18.74
18.94
18.52
17.52
16.01
14.06
11.75
9.24
6.73
4.49
2.71
1.45
0.57
-0.23
-1.34
-3.00
-5.24
-7.83
-10.39
-12.56
-14.14
-15.20
-16.02
-17.00
-18.50
-20.80
-23.95
-27.76
-31.68
-34.86
-36.35
-35.37
-31.59
-25.32
-17.37
-8.83
-0.72
6.27
11.82
15.87
18.50
19.78
19.84
18.86
17.20
15.36
13.84
13.01
12.97
13.60
14.62
15.73
16.71
17.45
17.90
18.02
17.76
17.08
16.01
14.63
13.09
11.50
9.95
8.44
7.00
5.64
4.40
3.23
2.06
0.71
-0.97
-3.04
-5.39
-7.78
-9.97
-11.79
-13.27
-14.69
-16.41
-18.80
-22.02
-25.96
-30.15
-33.87
-36.29
-36.67
-34.58
-30.05
-23.56
-15.91
-8.00
-0.66
5.54
10.29
13.48
15.23
15.73
15.26
14.16
12.79
11.49
10.49
9.94
9.88
10.30
11.16
12.39
13.86
15.36
16.57
17.16
16.86
15.60
13.50
10.89
8.13
5.53
3.26
1.32
-0.39
-2.03
-3.73
-5.58
-7.64
-9.87
-12.17
-14.37
-16.28
-17.75
-18.82
-19.70
-20.72
-22.23
-24.42
-27.20
-30.16
-32.58
-33.66
-32.69
-29.33
-23.71
-16.45
-8.41
-0.51
6.51
12.20
16.38
19.07
20.37
20.40
19.38
17.62
15.56
13.71
12.48
12.15
12.70
13.92
15.43
16.87
17.93
18.41
18.28
17.57
16.40
14.88
13.13
11.22
9.18
7.01
4.76
2.49
0.34
-1.57
-3.17
-4.51
-5.76
-7.18
-9.05
-11.60
-14.92
-18.87
-23.03
-26.73
-29.16
-29.53
-27.40
-22.80
-16.27
-8.73
-1.17
5.58
11.02
14.96
17.48
18.73
18.89
18.16
16.79
15.09
13.41
12.11
11.46
11.60
12.47
13.82
15.25
16.39
16.95
16.87
16.22
15.18
13.88
12.35
10.55
8.43
6.02
3.44
0.85
-1.62
-3.91
-6.03
-8.04
-9.97
-11.83
-13.72
-15.75
-18.14
-21.04
-24.43
-27.98
-31.05
-32.80
-32.43
-29.41
-23.69
-15.73
-6.40
3.21
12.01
19.12
24.00
26.53
26.95
25.75
23.53
20.84
18.12
15.66
13.68
12.34
11.75
11.90
12.66
13.75
14.83
15.55
15.67
15.06
13.74
11.85
9.58
7.17
4.85
2.82
1.14
-0.22
-1.39
-2.53
-3.83
-5.38
-7.22
-9.27
-11.42
-13.54
-15.65
-17.92
-20.58
-23.80
-27.47
-31.11
-33.93
-35.08
-33.92
-30.32
-24.69
-17.81
-10.57
-3.72
2.24
7.07
10.67
13.02
14.10
13.96
12.81
11.03
9.14
7.65
6.95
7.16
8.16
9.66
11.28
12.63
13.43
13.46
12.69
11.24
9.34
7.30
5.34
3.53
1.81
0.06
-1.83
-3.84
-5.84
-7.70
-9.35
-10.86
-12.40
-14.14
-16.23
-18.71
-21.49
-24.32
-26.76
-28.26
-28.20
-26.13
-21.87
-15.69
-8.25
-0.40
6.99
13.23
17.91
20.91
22.29
22.25
21.14
19.37
17.42
15.74
14.70
14.47
15.08
16.37
18.10
19.99
21.73
23.04
23.68
23.51
22.54
20.93
18.96
16.89
14.88
12.96
11.04
9.06
7.02
4.98
3.07
1.33
-0.23
-1.63
-2.87
-3.89
-4.68
-5.33
-6.11
-7.35
-9.23
-11.51
-13.44
-13.92
-11.91
-6.80
1.23
11.35
22.30
32.86
42.26
50.27
57.08
63.08
68.56
73.58
78.04
81.85
85.17
88.50
92.50
97.73
104.42
112.40
121.19
130.38
139.78
149.36
158.91
167.47
173.20
173.61
166.37
149.92
123.96
89.42
48.32
3.47
-41.64
-82.95
-116.34
-138.45
-147.79
-145.40
-134.88
-121.16
-109.10
-102.39
-103.05
-111.24
-125.63
-144.06
-164.45
-185.22
-205.54
-225.34
-245.19
-265.78
-286.95
-307.24
-324.47
-336.97
-344.06
-345.76
-342.14
-333.10
-318.31
-297.19
-269.11
-234.32
-194.49
-151.50
-105.98
-56.69
-2.17
57.45
119.61
180.17
234.60
279.24
308.22
315.58
300.71
269.43
229.70
187.56
147.28
114.18
89.09
72.69
65.03
65.61
72.23
81.53
89.59
94.45
96.18
95.55
93.66
91.49
90.85
92.95
97.94
105.03
113.25
121.18
126.43
126.98
116.97
96.42
71.62
50.55
36.51
26.98
16.92
2.62
-15.69
-34.45
-48.14
-53.44
-50.87
-44.18
-37.25
-32.16
-29.09
-26.96
-24.85
-21.62
-17.15
-12.13
-8.04
-5.72
-5.24
-6.45
-9.60
-14.76
-21.41
-29.11
-37.40
-46.53
-56.53
-67.33
-78.94
-89.42
-99.37
-108.31
-117.26
-124.25
-128.65
-130.55
-130.50
-129.47
-128.63
-129.43
-132.92
-139.74
-149.18
-159.27
-165.59
-162.49
-145.48
-113.28
-68.80
-17.57
34.55
84.48
129.41
168.57
203.41
235.63
265.39
290.67
308.50
316.31
313.34
300.47
280.14
255.33
228.71
202.67
180.16
165.15
161.75
172.18
194.46
222.02
245.10
253.86
242.22
210.08
163.28
110.65
60.24
16.37
-20.96
-55.03
-90.27
-129.84
-173.81
-218.60
-257.72
-283.75
-290.56
-274.98
-237.37
-181.42
-113.14
-39.68
31.90
95.82
148.50
188.84
217.73
236.73
246.47
246.08
233.96
209.58
175.18
136.02
98.79
68.62
47.05
31.43
16.65
-2.30
-28.30
-61.59
-100.73
-143.94
-190.10
-238.51
-288.04
-336.30
-379.52
-413.85
-436.80
-448.49
-451.58
-450.12
-447.89
-447.52
-450.62
-458.52
-472.48
-492.92
-518.00
-543.01
-561.11
-565.84
-553.72
-525.79
-486.77
-442.72
-398.30
-355.37
-313.28
-270.59
-226.66
-182.30
-139.25
-98.99
-62.02
-27.71
4.97
36.72
67.43
96.04
121.12
141.47
156.72
167.47
175.19
181.76
188.97
198.26
210.70
227.24
248.66
275.27
306.24
339.23
370.55
396.11
412.63
418.61
414.68
403.00
386.19
366.42
345.00
322.62
299.81
277.40
256.45
237.99
222.48
209.70
198.84
188.94
179.33
169.89
161.08
153.59
148.01
144.59
143.13
142.93
142.72
140.60
134.16
121.09
100.08
71.79
39.17
6.63
-21.55
-43.04
-58.26
-69.82
-80.68
-92.25
-103.34
-110.48
-109.62
-98.03
-75.72
-45.61
-12.68
17.59
40.83
54.80
59.83
58.34
53.85
49.76
48.18
49.56
52.98
57.12
61.19
65.50
71.21
79.48
90.55
103.26
115.35
124.36
128.74
128.30
124.02
117.29
109.09
99.65
88.63
75.68
60.72
43.79
24.53
2.05
-24.67
-55.85
-90.17
-124.76
-156.22
-181.88
-200.63
-212.53
-217.89
-216.27
-206.81
-189.21
-165.50
-140.50
-120.55
-110.85
-112.97
-124.15
-138.80
-151.16
-157.40
-156.15
-147.84
-133.52
-114.27
-91.18
-65.91
-40.89
-18.75
-1.38
10.81
19.08
25.95
34.28
46.36
63.32
84.61
107.97
129.82
146.29
154.44
153.22
143.45
127.16
106.52
83.08
57.41
29.52
-0.31
-30.72
-58.58
-79.57
-89.64
-87.05
-73.90
-55.89
-40.30
-32.79
-34.91
-43.62
-53.14
-57.91
-55.20
-45.72
-32.47
-18.55
-5.64
6.23
17.56
27.84
34.93
35.45
26.44
6.85
-21.35
-53.11
-81.36
-98.81
-100.13
-83.45
-50.73
-6.73
42.65
91.99
137.49
176.92
208.84
231.79
244.20
245.07
235.15
217.00
194.31
170.78
149.05
130.19
113.96
99.82
87.70
78.73
73.62
71.61
70.82
69.33
66.12
61.41
56.53
53.31
54.71
62.22
75.21
91.94
110.74
130.03
147.29
158.75
160.07
149.96
128.46
97.34
61.19
27.98
6.54
2.50
15.27
38.30
64.96
88.47
104.10
110.92
111.36
107.46
97.30
74.95
17.75
-76.35
-185.67
-279.61
-339.73
-365.27
-366.64
-356.92
-345.91
-337.89
-330.08
-319.86
-307.57
-294.74
-280.62
-261.75
-234.15
-196.24
-150.62
-101.27
-54.68
-17.67
5.83
16.71
19.34
18.77
18.63
20.81
27.47
39.12
53.91
67.94
77.25
78.67
71.83
59.68
48.11
44.15
51.81
69.75
91.58
108.82
114.33
105.18
83.56
55.91
31.06
16.93
18.69
37.71
71.44
114.17
158.73
198.30
228.10
245.99
251.62
245.96
230.66
207.88
180.31
151.13
123.28
97.97
77.47
61.12
46.42
30.34
11.06
-11.60
-36.28
-61.00
-84.09
-104.61
-122.78
-139.09
-153.94
-167.32
-179.12
-189.27
-198.03
-206.02
-214.14
-223.88
-236.44
-252.94
-273.98
-299.93
-331.28
-368.74
-413.00
-463.90
-519.80
-576.95
-629.91
-672.69
-700.26
-709.78
-700.94
-675.63
-637.09
-589.24
-535.97
-480.90
-427.08
-376.83
-331.45
-291.12
-255.05
-221.72
-189.38
-156.40
-121.57
-84.32
-44.94
-4.38
36.46
76.96
117.33
158.56
201.95
248.48
298.15
349.94
401.94
452.12
498.91
541.73
581.18
618.79
656.65
696.73
739.94
785.36
829.57
866.82
890.24
893.78
874.21
832.40
772.95
702.65
628.31
555.04
485.82
422.01
364.48
314.25
272.31
238.89
212.49
189.73
166.20
137.95
102.79
61.07
14.93
-32.63
-79.19
-123.95
-167.84
-212.94
-261.60
-315.85
-376.61
-442.85
-510.73
-573.21
-621.39
-646.95
-644.82
-614.92
-562.37
-495.44
-422.52
-349.71
-279.23
-210.87
-143.22
-74.77
-4.55
66.55
135.02
194.61
237.42
257.54
251.72
220.56
168.11
101.28
27.40
-46.62
-114.24
-168.98
-203.19
-212.79
-199.14
-168.60
-128.62
-85.73
-42.42
3.22
55.36
119.22
193.74
270.33
335.77
379.51
395.55
385.15
355.62
302.47
233.28
163.77
108.13
69.94
46.99
33.53
23.95
14.39
1.79
-14.51
-36.77
-65.28
-101.61
-136.03
-159.50
-166.56
-159.39
-143.79
-123.59
-100.79
-76.21
-58.89
-45.21
-32.85
-20.63
-11.00
-6.10
-6.66
-13.08
-19.00
-23.38
-24.85
-24.79
-24.99
-30.66
-44.98
-69.19
-101.72
-139.95
-183.09
-229.25
-278.13
-306.09
-298.14
-253.06
-186.11
-115.10
-51.25
0.73
41.95
75.02
103.24
119.91
128.00
128.98
125.02
117.98
107.88
94.66
77.68
55.94
25.08
-10.96
-52.44
-99.00
-150.09
-206.23
-268.19
-336.76
-411.48
-490.23
-566.55
-633.00
-680.74
-703.17
-699.20
-672.81
-631.61
-583.54
-532.88
-480.30
-426.60
-372.40
-319.04
-269.16
-223.50
-181.68
-142.25
-99.38
-48.84
8.40
67.68
123.47
170.67
210.10
244.80
278.37
320.53
377.39
447.39
522.87
594.98
655.19
703.89
744.11
779.09
819.71
872.07
932.98
992.09
1038.31
1061.45
1063.47
1049.93
972.04
809.55
579.27
326.52
95.44
-69.23
-181.94
-257.49
-306.83
-337.69
-351.99
-349.28
-332.06
-305.15
-273.93
-254.03
-254.34
-281.11
-332.42
-388.12
-424.28
-423.69
-388.04
-329.46
-266.49
-209.90
-163.90
-131.90
-108.51
-88.56
-80.34
-90.87
-121.83
-170.17
-225.74
-278.56
-321.59
-346.74
-355.22
-351.91
-342.28
-330.57
-319.46
-306.85
-291.09
-269.67
-240.10
-202.78
-160.29
-115.70
-71.62
-29.67
10.94
52.16
96.24
144.36
195.11
245.50
292.48
333.62
368.02
396.62
421.53
445.48
470.97
499.56
532.17
568.60
606.10
638.61
657.44
654.03
623.94
569.52
499.81
427.69
365.08
318.78
289.08
271.61
260.66
252.17
244.47
236.93
228.15
214.92
193.31
161.04
119.44
73.54
30.08
-5.94
-33.94
-58.04
-85.04
-120.84
-167.56
-222.60
-280.35
-335.00
-383.07
-424.38
-461.43
-498.11
-538.00
-582.85
-631.19
-677.91
-714.77
-732.58
-724.35
-687.57
-624.72
-541.94
-446.68
-346.07
-246.81
-155.63
-79.44
-24.01
8.31
20.31
19.61
15.89
17.09
26.54
42.62
60.65
75.67
84.77
87.67
85.98
81.85
77.06
72.61
68.96
66.24
64.47
63.70
63.76
64.30
64.68
64.18
62.14
58.25
52.74
46.28
39.83
34.21
29.80
26.38
23.26
19.50
14.35
7.53
-0.54
-8.71
-15.38
-18.90
-18.08
-12.71
-3.63
7.38
18.27
27.29
33.50
36.87
37.99
37.62
36.31
34.32
31.69
28.55
25.21
22.16
19.93
18.85
18.95
19.94
21.33
22.61
23.32
23.18
22.08
20.05
17.26
13.94
10.34
6.71
3.21
-0.05
-3.17
-6.48
-10.43
-15.40
-21.33
-27.45
-32.32
-34.21
-31.81
-24.81
-14.19
-1.88
9.89
19.37
25.71
28.99
29.91
29.33
27.92
26.12
24.21
22.41
20.96
20.05
19.68
19.69
19.80
19.79
19.55
19.18
18.82
18.54
18.19
17.45
15.96
13.50
10.15
6.25
2.33
-1.10
-3.70
-5.41
-6.64
-8.14
-10.92
-15.79
-22.90
-31.39
-39.37
-44.46
-44.64
-39.07
-28.54
-15.15
-1.58
9.94
18.19
23.13
25.50
26.19
25.86
24.84
23.30
21.43
19.60
18.23
17.61
17.80
18.60
19.70
20.80
21.72
22.39
22.81
22.93
22.62
21.75
20.18
17.93
15.15
12.12
9.11
6.30
3.72
1.28
-1.15
-3.61
-6.02
-8.22
-9.99
-11.25
-12.03
-12.58
-13.35
-14.92
-17.87
-22.45
-28.33
-34.42
-39.04
-40.42
-37.38
-29.81
-18.85
-6.50
5.05
14.16
20.07
22.88
23.27
22.04
19.87
17.27
14.61
12.25
10.51
9.59
9.56
10.28
11.47
12.86
14.27
15.60
16.83
17.92
18.73
19.03
18.56
17.21
15.03
12.29
9.33
6.43
3.77
1.36
-0.86
-2.93
-4.83
-6.47
-7.77
-8.73
-9.48
-10.27
-11.47
-13.51
-16.72
-21.20
-26.60
-32.00
-36.08
-37.42
-35.10
-29.03
-20.15
-10.09
-0.60
7.02
12.30
15.46
17.06
17.54
17.10
15.71
13.44
10.70
8.18
6.60
6.41
7.49
9.26
10.96
12.03
12.28
11.97
11.54
11.37
11.53
11.74
11.50
10.32
7.92
4.42
0.32
-3.69
-6.98
-9.16
-10.30
-10.72
-10.96
-11.61
-13.15
-15.94
-20.06
-25.18
-30.40
-34.39
-35.70
-33.26
-26.94
-17.63
-7.03
2.96
10.89
16.10
18.77
19.50
18.93
17.49
15.33
12.55
9.36
6.19
3.62
2.17
2.02
3.05
4.80
6.76
8.54
10.01
11.23
12.25
12.97
13.05
12.03
9.60
5.76
1.00
-3.92
-8.14
-11.13
-12.77
-13.41
-13.72
-14.39
-15.95
-18.63
-22.29
-26.40
-30.14
-32.46
-32.27
-28.86
-22.09
-12.65
-1.91
8.44
16.93
22.70
25.70
26.45
25.66
23.94
21.62
18.85
15.79
12.68
9.90
7.76
6.40
5.71
5.43
5.21
4.80
4.16
3.44
2.89
2.72
2.98
3.40
3.48
2.66
0.55
-2.81
-6.97
-11.19
-14.81
-17.44
-19.18
-20.51
-22.10
-24.61
-28.42
-33.49
-39.30
-44.88
-48.99
-50.33
-47.88
-41.15
-30.39
-16.63
-1.46
13.28
25.94
35.36
41.11
43.47
43.26
41.50
39.19
37.05
35.46
34.47
33.92
33.51
32.98
32.14
30.95
29.50
27.97
26.50
25.13
23.75
22.13
19.99
17.09
13.39
9.09
4.61
0.49
-2.84
-5.22
-6.90
-8.50
-10.87
-14.70
-20.23
-26.94
-33.52
-38.20
-39.23
-35.57
-27.33
-15.85
-3.34
7.92
16.26
21.05
22.68
22.09
20.18
17.49
14.17
10.27
6.04
2.00
-1.12
-2.84
-3.14
-2.49
-1.67
-1.36
-1.88
-3.09
-4.58
-5.95
-7.04
-8.04
-9.37
-11.35
-14.01
-16.98
-19.64
-21.34
-21.74
-20.92
-19.44
-18.13
-17.84
-19.17
-22.18
-26.25
-30.20
-32.51
-31.91
-27.80
-20.54
-11.38
-1.92
6.41
12.81
17.16
19.79
21.09
21.26
20.30
18.28
15.48
12.45
9.84
8.14
7.48
7.69
8.42
9.37
10.37
11.35
12.19
12.63
12.33
10.97
8.44
4.90
0.77
-3.42
-7.21
-10.23
-12.32
-13.48
-14.01
-14.45
-15.49
-17.68
-21.11
-25.18
-28.61
-29.89
-27.92
-22.53
-14.59
-5.68
2.57
9.06
13.44
15.98
17.19
17.39
16.74
15.28
13.18
10.81
8.66
7.11
6.31
6.09
6.17
6.34
6.56
6.94
7.54
8.25
8.70
8.44
7.05
4.46
0.95
-2.94
-6.58
-9.49
-11.48
-12.62
-13.28
-14.02
-15.47
-18.11
-22.04
-26.77
-31.18
-33.82
-33.45
-29.52
-22.51
-13.73
-4.85
2.77
8.45
12.30
14.76
16.33
17.15
17.09
15.99
13.88
11.16
8.48
6.49
5.62
5.99
7.43
9.60
12.04
14.32
16.11
17.21
17.60
17.42
16.83
15.91
14.54
12.54
9.78
6.38
2.71
-0.71
-3.48
-5.44
-6.77
-7.95
-9.56
-12.16
-16.02
-20.97
-26.30
-30.85
-33.30
-32.58
-28.34
-21.04
-11.86
-2.28
6.43
13.46
18.56
21.84
23.56
23.99
23.41
22.13
20.53
18.99
17.86
17.30
17.31
17.72
18.27
18.73
18.96
18.95
18.77
18.44
17.89
16.96
15.47
13.36
10.79
8.04
5.45
3.20
1.27
-0.56
-2.50
-4.63
-6.82
-8.85
-10.51
-11.73
-12.58
-13.22
-13.94
-15.07
-17.03
-20.12
-24.35
-29.21
-33.64
-36.26
-35.85
-31.88
-24.77
-15.75
-6.41
1.90
8.42
13.08
16.22
18.25
19.35
19.53
18.78
17.22
15.30
13.61
12.67
12.74
13.68
15.05
16.40
17.41
18.01
18.35
18.59
18.80
18.85
18.52
17.57
15.91
13.65
11.09
8.62
6.60
5.19
4.38
3.97
3.64
3.11
2.19
0.87
-0.76
-2.49
-4.16
-5.63
-6.93
-8.17
-9.65
-11.77
-14.93
-19.36
-24.84
-30.67
-35.62
-38.33
-37.73
-33.48
-26.16
-17.08
-7.84
0.22
6.33
10.40
12.72
13.76
13.90
13.37
12.41
11.26
10.23
9.59
9.47
9.78
10.32
10.87
11.36
11.84
12.46
13.29
14.21
14.87
14.87
13.89
11.91
9.22
6.30
3.65
1.60
0.23
-0.62
-1.23
-1.86
-2.72
-3.85
-5.20
-6.65
-8.01
-9.16
-10.09
-10.97
-12.13
-13.98
-16.82
-20.66
-24.98
-28.79
-30.84
-30.06
-26.01
-19.11
-10.57
-1.98
5.31
10.55
13.71
15.26
15.79
15.68
15.04
13.86
12.21
10.36
8.74
7.73
7.54
8.16
9.39
10.98
12.70
14.37
15.80
16.81
17.22
16.93
16.00
14.59
12.97
11.37
9.91
8.64
7.51
6.47
5.51
4.62
3.85
3.22
2.79
2.62
2.70
2.89
2.79
1.87
-0.26
-3.58
-7.37
-10.27
-10.76
-7.74
-1.01
8.55
19.36
29.76
38.59
45.47
50.64
54.52
57.22
58.42
57.47
53.82
47.30
38.32
27.72
16.46
5.35
-5.10
-14.60
-23.08
-30.47
-36.78
-42.12
-46.74
-50.98
-55.10
-59.04
-62.35
-64.25
-63.96
-61.03
-55.55
-48.16
-39.84
-31.60
-24.32
-18.69
-15.32
-14.69
-17.04
-22.06
-28.71
-35.33
-40.04
-41.41
-38.88
-32.89
-24.68
-15.77
-7.58
-1.15
2.88
4.38
3.70
1.69
-0.48
-1.61
-1.02
1.18
4.07
6.33
6.89
5.46
2.67
-0.16
-1.64
-0.82
2.49
7.67
13.51
18.66
21.92
22.60
20.63
16.57
11.38
6.16
1.83
-1.02
-2.24
-2.04
-0.94
0.39
1.26
1.15
-0.16
-2.47
-5.26
-7.95
-10.14
-11.84
-13.48
-15.66
-18.70
-22.40
-25.87
-27.76
-26.78
-22.16
-14.02
-3.38
8.11
18.72
27.02
32.22
34.15
33.20
30.11
25.77
21.17
17.22
14.62
13.72
14.39
16.10
18.07
19.59
20.27
20.12
19.45
18.57
17.53
16.06
13.67
9.94
4.83
-1.29
-7.72
-13.69
-18.57
-22.09
-24.32
-25.68
-26.78
-28.24
-30.45
-33.32
-36.22
-37.97
-37.28
-33.15
-25.35
-14.50
-1.99
10.45
21.23
29.26
34.09
35.85
35.10
32.55
28.95
24.93
20.97
17.34
14.19
11.52
9.33
7.57
6.24
5.32
4.73
4.34
3.97
3.38
2.38
0.81
-1.33
-3.96
-6.82
-9.61
-12.01
-13.85
-15.22
-16.54
-18.43
-21.40
-25.50
-30.11
-33.96
-35.53
-33.65
-28.00
-19.30
-9.09
0.84
9.05
14.82
18.19
19.66
19.88
19.34
18.29
16.81
14.91
12.65
10.17
7.72
5.59
4.05
3.31
3.43
4.30
5.60
6.92
7.81
7.93
7.07
5.24
2.64
-0.42
-3.60
-6.61
-9.26
-11.54
-13.65
-15.98
-19.03
-23.05
-27.85
-32.52
-35.62
-35.65
-31.63
-23.70
-13.11
-1.89
7.97
15.21
19.49
21.32
21.52
20.81
19.56
17.94
16.05
14.18
12.62
11.62
11.17
10.98
10.74
10.26
9.62
9.15
9.12
9.58
10.17
10.26
9.22
6.71
2.85
-1.81
-6.50
-10.53
-13.50
-15.42
-16.68
-17.97
-20.00
-23.22
-27.54
-32.16
-35.72
-36.68
-33.95
-27.35
-17.80
-7.00
3.21
11.43
17.10
20.38
21.89
22.17
21.57
20.26
18.39
16.28
14.41
13.21
12.89
13.27
13.91
14.33
14.26
13.76
13.19
12.88
12.94
13.10
12.79
11.45
8.79
4.99
0.64
-3.52
-6.86
-9.14
-10.51
-11.46
-12.61
-14.56
-17.71
-22.10
-27.28
-32.29
-35.82
-36.56
-33.67
-27.19
-18.08
-7.93
1.56
9.17
14.38
17.40
18.81
19.19
18.90
18.08
16.80
15.22
13.67
12.57
12.25
12.78
13.97
15.45
16.81
17.75
18.15
18.05
17.57
16.83
15.90
14.75
13.24
11.19
8.46
5.14
1.51
-1.98
-4.90
-7.01
-8.34
-9.16
-9.85
-10.82
-12.40
-14.90
-18.47
-22.99
-27.88
-32.06
-34.20
-33.16
-28.48
-20.69
-11.14
-1.56
6.54
12.35
15.83
17.48
17.97
17.82
17.26
16.34
15.07
13.58
12.12
11.03
10.55
10.76
11.55
12.63
13.69
14.44
14.73
14.52
13.87
12.83
11.42
9.62
7.38
4.70
1.71
-1.36
-4.23
-6.63
-8.47
-9.82
-10.86
-11.81
-12.83
-13.98
-15.37
-17.18
-19.63
-22.81
-26.45
-29.78
-31.65
-30.95
-27.12
-20.46
-12.04
-3.34
4.34
10.29
14.47
17.24
18.95
19.72
19.40
17.86
15.31
12.35
9.84
8.48
8.56
9.79
11.52
13.04
13.96
14.25
14.18
14.02
13.85
13.49
12.60
10.88
8.23
4.83
1.07
-2.57
-5.71
-8.09
-9.68
-10.62
-11.19
-11.72
-12.59
-14.14
-16.59
-19.98
-24.03
-28.09
-31.16
-32.12
-30.15
-25.06
-17.50
-8.77
-0.41
6.38
11.10
13.96
15.54
16.33
16.51
15.92
14.39
12.04
9.38
7.19
6.14
6.49
7.93
9.81
11.42
12.30
12.39
11.91
11.18
10.37
9.42
8.09
6.07
3.16
-0.60
-4.87
-9.13
-12.77
-15.27
-16.36
-16.16
-15.11
-13.98
-13.58
-14.60
-17.28
-21.26
-25.55
-28.76
-29.54
-27.09
-21.48
-13.66
-5.07
2.86
9.23
13.77
16.72
18.45
19.17
18.89
17.50
15.00
11.61
7.78
4.13
1.29
-0.21
-0.00
1.93
5.23
9.19
12.92
15.63
16.91
16.83
15.88
14.62
13.50
12.60
11.72
10.54
8.90
6.89
4.83
3.09
1.88
1.17
0.68
0.05
-1.09
-3.02
-5.96
-9.93
-14.73
-19.73
-23.89
-26.00
-25.05
-20.72
-13.54
-4.82
3.85
11.11
16.18
18.95
19.76
19.08
17.31
14.72
11.53
8.03
4.67
1.90
0.08
-0.69
-0.63
-0.21
0.05
-0.32
-1.57
-3.73
-6.67
-10.16
-14.02
-18.09
-22.23
-26.24
-29.77
-32.35
-33.52
-32.98
-30.82
-27.51
-23.77
-20.26
-17.35
-15.05
-13.19
-11.74
-10.94
-11.16
-12.50
-14.40
-15.61
-14.59
-10.19
-2.25
8.23
19.53
29.86
38.05
43.81
47.56
49.94
51.37
51.91
51.32
49.41
46.29
42.42
38.46
35.04
32.47
30.66
29.25
27.77
25.84
23.31
20.20
16.71
13.03
9.29
5.52
1.65
-2.44
-6.84
-11.53
-16.27
-20.68
-24.31
-26.83
-28.20
-28.68
-28.72
-28.76
-29.18
-30.23
-32.05
-34.72
-38.06
-41.49
-44.00
-44.38
-41.63
-35.53
-26.78
-16.84
-7.35
0.43
6.05
9.72
11.93
13.06
13.21
12.29
10.36
7.83
5.41
3.88
3.66
4.71
6.48
8.27
9.54
10.11
10.15
10.00
9.91
9.83
9.46
8.39
6.35
3.35
-0.24
-3.86
-6.94
-9.10
-10.30
-10.73
-10.80
-10.96
-11.63
-13.19
-15.80
-19.36
-23.39
-26.97
-28.97
-28.37
-24.70
-18.29
-10.18
-1.78
5.67
11.46
15.46
17.99
19.40
19.83
19.25
17.59
14.99
11.93
9.12
7.23
6.71
7.59
9.61
12.28
15.13
17.74
19.80
21.06
21.36
20.54
18.54
15.37
11.21
6.36
1.32
-3.35
-7.15
-9.80
-11.29
-11.88
-12.03
-12.28
-13.13
-14.98
-18.03
-22.07
-26.43
-30.00
-31.50
-29.93
-25.01
-17.37
-8.36
0.43
7.74
12.96
16.19
17.84
18.35
17.90
16.49
14.11
10.96
7.53
4.52
2.50
1.79
2.31
3.72
5.55
7.44
9.19
10.69
11.82
12.39
12.14
10.91
8.72
5.83
2.71
-0.19
-2.58
-4.40
-5.83
-7.13
-8.50
-10.02
-11.67
-13.34
-14.96
-16.51
-18.13
-20.06
-22.64
-26.13
-30.49
-35.17
-39.15
-41.11
-39.89
-34.98
-26.81
-16.65
-6.17
3.15
10.42
15.50
18.70
20.47
21.13
20.78
19.53
17.62
15.56
13.99
13.38
13.87
15.20
16.86
18.33
19.34
19.90
20.22
20.51
20.75
20.68
19.88
18.03
15.09
11.42
7.61
4.30
1.85
0.24
-0.88
-1.99
-3.43
-5.33
-7.54
-9.79
-11.85
-13.56
-14.91
-16.04
-17.22
-18.82
-21.21
-24.65
-29.06
-33.85
-37.98
-40.14
-39.22
-34.76
-27.14
-17.51
-7.41
1.79
9.22
14.61
18.16
20.22
21.06
20.83
19.65
17.80
15.77
14.13
13.36
13.67
14.89
16.62
18.35
19.73
20.61
21.06
21.23
21.18
20.84
19.96
18.34
15.90
12.83
9.55
6.56
4.23
2.66
1.66
0.80
-0.34
-2.00
-4.15
-6.55
-8.88
-10.89
-12.51
-13.83
-15.10
-16.64
-18.77
-21.76
-25.68
-30.27
-34.83
-38.32
-39.63
-37.93
-33.07
-25.59
-16.62
-7.45
0.90
7.83
13.17
17.01
19.46
20.59
20.47
19.33
17.57
15.77
14.47
14.02
14.45
15.52
16.84
18.12
19.18
19.99
20.56
20.85
20.65
19.73
17.94
15.30
12.11
8.77
5.72
3.20
1.25
-0.32
-1.78
-3.40
-5.33
-7.58
-10.00
-12.38
-14.52
-16.31
-17.77
-19.11
-20.66
-22.82
-25.85
-29.68
-33.74
-37.04
-38.37
-36.80
-32.01
-24.52
-15.47
-6.26
1.96
8.54
13.39
16.69
18.67
19.43
19.03
17.56
15.36
12.96
10.95
9.84
9.85
10.93
12.79
15.05
17.31
19.18
20.36
20.57
19.70
17.82
15.22
12.31
9.49
7.02
4.97
3.20
1.54
-0.21
-2.13
-4.24
-6.53
-8.90
-11.22
-13.31
-15.05
-16.53
-18.05
-20.14
-23.21
-27.30
-31.77
-35.44
-36.91
-35.12
-29.83
-21.72
-12.15
-2.64
5.63
12.06
16.57
19.34
20.56
20.39
18.98
16.64
13.90
11.40
9.71
9.15
9.71
11.10
12.91
14.74
16.35
17.59
18.39
18.68
18.37
17.32
15.51
13.00
10.01
6.85
3.80
1.08
-1.25
-3.24
-5.02
-6.71
-8.39
-10.11
-11.83
-13.49
-15.09
-16.71
-18.59
-21.03
-24.28
-28.25
-32.34
-35.47
-36.44
-34.31
-28.87
-20.72
-11.10
-1.40
7.28
14.32
19.54
23.01
24.86
25.19
24.18
22.22
19.86
17.73
16.32
15.79
16.07
16.80
17.68
18.46
19.08
19.57
19.99
20.29
20.30
19.76
18.42
16.21
13.26
9.93
6.72
4.05
2.14
0.88
-0.12
-1.31
-3.03
-5.34
-8.02
-10.73
-13.14
-15.11
-16.66
-17.98
-19.35
-21.08
-23.52
-26.90
-31.18
-35.86
-39.92
-42.02
-40.98
-36.27
-28.27
-18.17
-7.56
2.13
9.99
15.75
19.51
21.50
21.94
21.03
19.08
16.60
14.22
12.51
11.81
12.10
13.12
14.49
15.89
17.18
18.27
19.11
19.58
19.48
18.65
17.02
14.70
11.94
9.02
6.21
3.61
1.25
-0.94
-3.03
-5.07
-7.09
-9.09
-11.03
-12.83
-14.43
-15.82
-17.16
-18.80
-21.17
-24.56
-28.84
-33.29
-36.73
-37.85
-35.72
-30.16
-21.86
-12.10
-2.36
6.18
12.82
17.41
20.09
21.14
20.82
19.39
17.14
14.50
11.96
10.05
9.15
9.37
10.54
12.21
13.89
15.16
15.79
15.79
15.29
14.44
13.27
11.68
9.54
6.75
3.38
-0.30
-3.92
-7.08
-9.53
-11.24
-12.39
-13.33
-14.44
-16.06
-18.43
-21.64
-25.53
-29.60
-33.04
-34.85
-34.14
-30.46
-24.02
-15.68
-6.67
1.80
8.87
14.17
17.70
19.62
20.10
19.23
17.20
14.35
11.34
8.90
7.62
7.73
8.95
10.69
12.29
13.32
13.70
13.67
13.50
13.35
13.05
12.25
10.55
7.78
4.09
-0.06
-4.05
-7.34
-9.67
-11.13
-12.10
-13.11
-14.67
-17.14
-20.66
-25.04
-29.75
-33.90
-36.38
-36.18
-32.73
-26.23
-17.62
-8.25
0.56
7.91
13.49
17.35
19.68
20.54
19.94
18.00
15.18
12.25
10.09
9.29
9.98
11.74
13.85
15.57
16.49
16.56
16.01
15.15
14.16
12.98
11.42
9.23
6.35
2.91
-0.77
-4.32
-7.42
-9.92
-11.81
-13.22
-14.39
-15.67
-17.47
-20.18
-23.93
-28.43
-32.85
-35.98
-36.63
-34.00
-28.11
-19.75
-10.25
-1.01
6.88
12.90
16.98
19.33
20.18
19.75
18.32
16.29
14.25
12.79
12.35
13.00
14.49
16.28
17.83
18.75
18.91
18.43
17.55
16.50
15.42
14.25
12.81
10.89
8.36
5.24
1.76
-1.74
-4.93
-7.55
-9.57
-11.10
-12.43
-13.95
-16.07
-19.14
-23.26
-28.13
-32.96
-36.58
-37.77
-35.67
-30.15
-21.95
-12.37
-2.91
5.27
11.55
15.88
18.53
19.83
20.02
19.29
17.86
16.08
14.42
13.34
13.12
13.82
15.22
16.97
18.64
19.88
20.46
20.31
19.47
18.08
16.32
14.36
12.32
10.26
8.14
5.93
3.58
1.08
-1.50
-4.06
-6.50
-8.73
-10.76
-12.66
-14.58
-16.75
-19.42
-22.84
-27.04
-31.73
-36.15
-39.21
-39.74
-37.00
-30.97
-22.48
-12.92
-3.80
3.78
9.35
12.97
15.00
15.81
15.61
14.61
13.13
11.70
10.95
11.38
13.11
15.83
18.95
21.79
23.83
24.81
24.72
23.70
21.95
19.68
17.07
14.30
11.46
8.62
5.78
2.96
0.19
-2.44
-4.87
-7.05
-9.01
-10.80
-12.51
-14.28
-16.35
-19.01
-22.53
-26.91
-31.64
-35.74
-37.90
-37.01
-32.63
-25.20
-15.90
-6.27
2.41
9.39
14.48
17.89
19.84
20.51
20.02
18.62
16.75
15.01
13.98
13.98
15.00
16.72
18.65
20.34
21.44
21.81
21.44
20.47
19.06
17.42
15.66
13.82
11.80
9.47
6.73
3.65
0.45
-2.57
-5.15
-7.20
-8.85
-10.32
-11.89
-13.73
-16.03
-18.96
-22.71
-27.32
-32.47
-37.34
-40.70
-41.27
-38.25
-31.67
-22.50
-12.28
-2.60
5.38
11.22
15.06
17.37
18.59
19.01
18.81
18.15
17.26
16.46
16.08
16.31
17.18
18.49
19.92
21.14
21.90
22.13
21.86
21.25
20.42
19.43
18.24
16.74
14.81
12.40
9.55
6.38
3.04
-0.27
-3.42
-6.33
-8.95
-11.27
-13.34
-15.29
-17.38
-19.99
-23.42
-27.80
-32.77
-37.49
-40.74
-41.32
-38.45
-32.18
-23.35
-13.36
-3.63
4.76
11.33
16.11
19.38
21.40
22.35
22.30
21.44
20.07
18.67
17.67
17.35
17.73
18.64
19.83
21.05
22.17
23.09
23.72
23.92
23.52
22.41
20.66
18.48
16.23
14.19
12.51
11.04
9.43
7.25
4.22
0.31
-4.17
-8.67
-12.69
-15.84
-18.10
-19.69
-21.11
-22.88
-25.49
-29.22
-33.97
-39.15
-43.71
-46.37
-45.98
-42.00
-34.70
-25.17
-14.88
-5.26
2.74
8.71
12.68
14.87
15.51
14.85
13.26
11.21
9.31
8.07
7.82
8.59
10.19
12.28
14.44
16.32
17.59
18.06
17.65
16.48
14.73
12.66
10.43
8.11
5.70
3.15
0.55
-1.99
-4.30
-6.29
-7.98
-9.51
-11.03
-12.67
-14.51
-16.63
-19.20
-22.40
-26.27
-30.48
-34.21
-36.30
-35.58
-31.46
-24.18
-14.83
-4.94
4.02
11.11
16.05
19.01
20.36
20.43
19.50
17.85
15.86
14.02
12.79
12.49
13.14
14.57
16.43
18.34
19.99
21.10
21.51
21.17
20.09
18.41
16.28
13.89
11.40
8.90
6.42
3.96
1.54
-0.83
-3.16
-5.46
-7.76
-10.07
-12.38
-14.63
-16.78
-18.92
-21.31
-24.33
-28.20
-32.76
-37.28
-40.52
-41.18
-38.41
-32.17
-23.32
-13.28
-3.53
4.84
11.35
16.02
19.08
20.77
21.21
20.54
19.00
17.02
15.14
13.86
13.45
13.91
14.98
16.35
17.75
19.04
20.15
20.99
21.35
20.99
19.70
17.48
14.53
11.22
7.93
4.90
2.19
-0.31
-2.72
-5.15
-7.62
-10.07
-12.40
-14.47
-16.21
-17.62
-18.88
-20.40
-22.62
-25.84
-29.92
-34.13
-37.27
-38.05
-35.60
-29.79
-21.37
-11.62
-1.94
6.55
13.23
17.93
20.73
21.81
21.41
19.85
17.62
15.30
13.47
12.52
12.54
13.32
14.49
15.72
16.80
17.70
18.46
19.10
19.46
19.29
18.35
16.55
14.01
11.04
8.04
5.37
3.17
1.40
-0.15
-1.76
-3.64
-5.83
-8.23
-10.62
-12.78
-14.57
-16.03
-17.34
-18.80
-20.80
-23.66
-27.45
-31.85
-36.08
-39.00
-39.44
-36.66
-30.66
-22.19
-12.52
-2.98
5.37
11.97
16.70
19.69
21.12
21.22
20.26
18.60
16.69
14.96
13.74
13.18
13.30
14.03
15.24
16.74
18.30
19.62
20.42
20.49
19.73
18.20
16.08
13.62
11.06
8.60
6.30
4.14
2.00
-0.24
-2.67
-5.24
-7.81
-10.19
-12.18
-13.73
-14.93
-16.05
-17.52
-19.77
-23.13
-27.54
-32.47
-36.90
-39.57
-39.40
-35.89
-29.34
-20.77
-11.51
-2.85
4.36
9.74
13.29
15.19
15.60
14.68
12.61
9.78
6.73
4.12
2.51
2.27
3.36
5.42
7.87
10.10
11.64
12.33
12.27
11.73
10.99
10.16
9.13
7.63
5.44
2.52
-0.85
-4.22
-7.09
-9.18
-10.51
-11.34
-12.06
-13.05
-14.61
-16.96
-20.22
-24.22
-28.42
-31.89
-33.45
-32.13
-27.57
-20.22
-11.25
-2.11
6.00
12.38
16.93
19.87
21.48
21.87
21.06
19.13
16.39
13.41
10.88
9.37
9.12
9.97
11.41
12.86
13.89
14.31
14.25
13.89
13.36
12.62
11.45
9.63
7.03
3.72
-0.00
-3.72
-7.02
-9.62
-11.44
-12.60
-13.46
-14.50
-16.23
-19.03
-22.94
-27.58
-32.09
-35.28
-36.00
-33.50
-27.76
-19.55
-10.21
-1.15
6.51
12.26
16.18
18.59
19.83
20.06
19.31
17.69
15.52
13.35
11.78
11.19
11.63
12.77
14.13
15.24
15.86
15.99
15.76
15.31
14.69
13.79
12.47
10.56
8.05
5.03
1.73
-1.53
-4.51
-7.05
-9.16
-10.90
-12.40
-13.82
-15.41
-17.47
-20.31
-24.07
-28.50
-32.86
-36.03
-36.88
-34.64
-29.25
-21.39
-12.24
-3.10
4.99
11.40
15.91
18.63
19.79
19.73
18.81
17.38
15.81
14.42
13.47
13.12
13.43
14.32
15.58
16.94
18.10
18.80
18.91
18.40
17.36
15.90
14.12
12.10
9.90
7.58
5.17
2.76
0.37
-1.95
-4.18
-6.30
-8.32
-10.23
-12.03
-13.77
-15.55
-17.60
-20.16
-23.41
-27.30
-31.37
-34.77
-36.44
-35.44
