1542381747.00
64.000000
-0.00
-0.00
-0.00
-0.00
-0.00
-0.00
-0.00
-0.00
-0.00
-0.00
0.00
0.01
0.01
-0.00
-0.03
-0.05
-0.05
0.00
0.13
0.36
0.66
1.01
1.37
1.72
2.06
2.40
2.79
3.24
3.80
4.42
5.06
5.66
6.20
6.68
7.15
7.68
8.31
9.14
10.09
11.04
11.88
12.56
13.14
13.76
14.65
15.96
17.91
20.32
22.90
25.38
27.58
29.57
31.68
34.32
37.81
42.54
48.15
54.10
59.83
64.97
69.58
74.14
79.34
85.71
93.76
103.00
112.62
121.73
129.77
136.75
143.30
150.75
157.77
166.64
177.95
191.79
206.97
220.57
228.25
225.36
208.53
176.87
132.76
80.05
23.07
-34.94
-92.44
-149.16
-205.23
-260.37
-313.74
-363.87
-409.83
-450.91
-486.50
-515.74
-537.23
-549.22
-549.96
-538.37
-514.21
-478.67
-433.88
-382.45
-327.02
-269.84
-212.63
-156.66
-102.95
-52.37
-5.90
35.58
71.43
101.35
125.50
144.38
158.69
169.15
176.37
180.75
182.57
182.07
179.51
175.23
169.65
163.18
156.15
148.81
141.30
133.69
126.02
118.33
110.69
103.16
95.80
88.68
81.83
75.25
68.95
62.95
57.25
51.86
46.78
42.03
37.59
33.45
29.61
26.07
22.81
19.83
17.11
14.67
12.48
10.54
8.83
7.35
6.07
4.97
4.05
3.27
2.62
2.09
1.65
1.30
1.01
0.79
0.61
0.47
0.37
0.29
0.23
0.19
0.17
0.16
0.16
0.17
0.18
0.21
0.24
0.27
0.31
0.35
0.40
0.44
0.48
0.53
0.57
0.62
0.67
0.73
0.78
0.85
0.92
0.99
1.08
1.18
1.29
1.42
1.57
1.73
1.91
2.11
2.34
2.59
2.86
3.16
3.50
3.86
4.26
4.69
5.15
5.65
6.18
6.75
7.35
8.00
8.69
9.42
10.19
11.01
11.88
12.78
13.74
14.76
15.85
16.99
18.20
19.44
20.68
21.87
22.91
23.71
24.14
24.10
23.45
22.12
20.07
17.30
13.88
9.90
5.55
1.03
-3.42
-7.57
-11.21
-14.16
-16.29
-17.54
-17.89
-17.40
-16.18
-14.38
-12.17
-9.72
-7.19
-4.71
-2.38
-0.26
1.63
3.25
4.58
5.64
6.46
7.04
7.44
7.69
7.91
8.21
8.64
9.25
10.14
11.39
13.06
15.20
17.86
21.09
25.03
29.47
34.28
39.35
44.54
49.72
54.76
59.61
64.36
69.26
74.14
79.02
83.95
88.93
93.84
98.59
103.09
107.44
111.96
116.39
120.64
124.56
127.73
129.43
128.67
124.20
114.42
102.40
89.34
76.15
63.37
51.05
38.80
26.03
12.20
-2.79
-18.52
-34.88
-51.45
-67.93
-84.38
-101.20
-119.14
-139.11
-161.96
-188.09
-217.49
-248.61
-278.29
-302.37
-316.82
-319.05
-308.90
-288.58
-261.76
-232.64
-204.28
-178.24
-154.78
-133.61
-114.46
-97.26
-82.08
-68.78
-57.13
-46.68
-36.96
-27.72
-19.00
-11.00
-3.93
2.19
7.57
12.50
17.25
21.86
26.04
29.34
31.35
32.00
31.66
31.06
31.04
32.29
35.09
39.26
44.24
49.24
53.40
55.99
56.56
55.04
51.79
47.47
42.76
38.11
33.54
28.80
23.47
17.42
10.94
4.77
-0.14
-3.04
-3.62
-2.15
0.62
3.77
6.50
8.36
9.37
9.91
10.47
11.44
12.88
14.45
15.56
15.56
14.08
11.17
7.40
3.67
0.97
0.02
1.11
4.01
8.19
12.97
17.77
22.15
25.75
28.19
29.07
28.05
25.12
20.75
15.97
12.05
10.10
10.53
12.81
15.58
17.23
16.60
13.64
9.51
6.12
5.21
7.46
12.03
16.86
19.51
18.28
12.95
4.82
-3.77
-10.41
-13.19
-11.26
-5.01
3.65
11.39
13.91
7.18
-10.85
-38.60
-70.10
-96.32
-108.31
-101.19
-76.49
-41.67
-6.75
20.28
36.36
43.52
46.18
47.89
49.29
48.60
43.69
34.09
21.54
8.86
-1.91
-10.47
-17.85
-25.25
-33.10
-41.04
-48.44
-54.79
-59.76
-62.98
-63.99
-62.48
-58.71
-53.65
-48.69
-45.12
-43.62
-44.28
-46.82
-50.55
-53.95
-54.02
-46.36
-26.43
8.23
55.89
109.95
160.33
196.66
211.79
204.41
179.35
145.91
114.77
94.71
90.60
102.55
126.76
157.02
186.27
207.86
216.42
208.69
184.16
145.33
97.28
46.43
-1.22
-41.37
-71.92
-92.52
-103.77
-106.62
-102.40
-93.13
-81.58
-70.69
-62.62
-57.88
-55.41
-53.39
-50.34
-45.94
-40.89
-36.30
-32.89
-30.70
-28.99
-26.78
-23.39
-18.78
-13.62
-8.98
-5.92
-5.03
-6.35
-9.41
-13.50
-17.99
-22.51
-26.96
-31.44
-36.07
-40.76
-45.17
-48.68
-50.74
-51.04
-49.82
-47.75
-45.77
-44.69
-44.90
-46.23
-48.07
-49.59
-49.96
-48.57
-45.03
-39.29
-31.65
-22.74
-13.44
-4.73
2.54
7.93
11.40
13.27
14.12
14.56
15.10
16.02
17.30
18.68
19.72
19.99
19.29
17.81
16.13
14.96
14.87
16.07
18.27
20.91
23.42
25.42
26.90
27.95
28.70
29.10
28.98
28.19
26.70
24.79
22.85
21.24
20.07
19.21
18.29
16.93
15.00
12.66
10.37
8.63
7.74
7.64
7.92
8.03
7.51
6.28
4.59
2.99
2.01
2.09
3.38
5.76
8.81
11.72
13.31
12.08
6.70
-3.56
-18.27
-35.81
-53.64
-69.14
-80.34
-86.46
-87.96
-86.09
-82.34
-78.04
-74.21
-71.78
-71.69
-74.86
-81.77
-91.93
-103.61
-113.90
-119.34
-116.93
-105.08
-84.21
-56.78
-26.52
2.57
27.30
45.96
58.36
65.40
68.34
68.34
66.18
62.46
57.75
52.81
48.47
45.32
43.46
42.46
41.52
39.86
37.04
33.17
28.75
24.46
20.79
17.82
15.20
12.26
8.27
2.79
-4.14
-11.98
-19.91
-27.06
-32.89
-37.27
-40.41
-42.65
-44.18
-44.86
-44.34
-42.17
-38.07
-32.00
-24.15
-14.89
-4.69
5.84
16.05
25.27
32.98
38.95
43.25
46.15
47.97
48.77
48.42
46.57
42.92
37.39
30.25
22.24
14.34
7.57
2.67
-0.05
-0.71
0.22
2.17
4.66
7.28
9.67
11.54
12.59
12.67
11.84
10.32
8.45
6.50
4.61
2.88
1.41
0.35
-0.11
0.16
1.14
2.67
4.51
6.38
7.97
8.96
9.02
7.92
5.69
2.62
-0.68
-3.56
-5.49
-6.28
-6.10
-5.35
-4.48
-3.77
-3.24
-2.80
-2.32
-1.77
-1.26
-0.94
-0.90
-1.01
-1.10
-0.95
-0.51
0.11
0.65
0.87
0.65
0.03
-0.76
-1.49
-1.93
-1.95
-1.50
-0.64
0.54
1.92
3.37
4.77
6.05
7.15
8.08
8.85
9.51
10.06
10.45
10.54
10.14
9.15
7.63
5.86
4.23
3.13
2.72
2.94
3.49
4.07
4.48
4.68
4.69
4.48
3.94
2.86
1.17
-1.08
-3.61
-6.06
-8.14
-9.70
-10.78
-11.50
-11.93
-12.02
-11.57
-10.39
-8.39
-5.69
-2.62
0.38
2.89
4.70
5.86
6.64
7.44
8.53
9.95
11.50
12.74
13.31
13.04
12.16
11.13
10.51
10.68
11.62
12.97
14.15
14.62
14.13
12.75
10.89
9.04
7.70
7.23
7.68
8.66
9.20
7.95
3.61
-4.43
-15.57
-27.95
-38.91
-45.91
-47.43
-43.36
-34.94
-24.05
-12.56
-1.86
7.30
14.59
20.01
23.63
25.69
26.61
26.92
27.22
27.92
29.12
30.48
31.33
30.83
28.39
23.87
17.82
11.30
5.57
1.65
-0.03
0.30
1.87
3.78
5.23
5.84
5.51
4.39
2.68
0.46
-2.36
-5.97
-10.50
-15.94
-22.09
-28.53
-34.76
-40.22
-44.36
-46.70
-46.88
-44.81
-40.75
-35.30
-29.26
-23.47
-18.51
-14.57
-11.56
-9.20
-7.26
-5.59
-4.16
-2.97
-1.93
-0.95
0.07
1.13
2.20
3.21
4.13
5.03
6.06
7.35
8.96
10.84
12.85
14.71
16.18
17.03
17.16
16.66
15.85
15.19
15.13
15.93
17.49
19.33
20.69
20.78
19.12
15.72
11.13
6.36
2.50
0.32
-0.03
0.90
2.07
2.43
1.36
-1.04
-4.03
-6.63
-8.04
-8.00
-6.77
-4.93
-3.10
-1.66
-0.75
-0.38
-0.55
-1.29
-2.58
-4.34
-6.31
-8.21
-9.75
-10.75
-11.21
-11.25
-11.00
-10.60
-10.16
-9.72
-9.25
-8.72
-8.10
-7.42
-6.78
-6.35
-6.23
-6.41
-6.71
-6.79
-6.33
-5.19
-3.49
-1.58
0.11
1.28
1.86
2.00
1.99
2.04
2.23
2.55
2.94
3.38
3.95
4.72
5.70
6.75
7.60
8.02
7.85
7.18
6.27
5.43
4.89
4.68
4.63
4.52
4.15
3.51
2.68
1.81
0.96
0.11
-0.82
-1.89
-3.03
-4.06
-4.77
-5.03
-4.80
-4.16
-3.21
-1.99
-0.56
1.02
2.62
4.07
5.21
6.00
6.50
6.88
7.22
7.57
7.84
7.93
7.80
7.44
6.91
6.24
5.46
4.59
3.73
3.01
2.63
2.69
3.16
3.83
4.42
4.66
4.37
3.58
2.41
1.07
-0.27
-1.51
-2.61
-3.63
-4.59
-5.51
-6.38
-7.10
-7.53
-7.52
-6.94
-5.74
-4.04
-2.02
-0.02
1.65
2.76
3.19
2.94
2.18
1.18
0.26
-0.29
-0.30
0.19
1.02
1.85
2.40
2.46
2.04
1.31
0.54
-0.05
-0.30
-0.20
0.18
0.70
1.26
1.76
2.08
2.08
1.61
0.65
-0.68
-2.01
-2.80
-2.57
-1.02
1.77
5.41
9.23
12.58
14.95
16.12
16.17
15.39
14.17
12.84
11.63
10.63
9.77
8.93
7.92
6.56
4.75
2.55
0.22
-1.86
-3.29
-3.83
-3.52
-2.64
-1.71
-1.21
-1.48
-2.56
-4.22
-6.06
-7.66
-8.69
-9.02
-8.64
-7.66
-6.21
-4.38
-2.26
0.02
2.29
4.27
5.78
6.66
6.91
6.72
6.36
6.22
6.67
7.94
10.00
12.62
15.27
17.42
18.70
19.12
19.11
19.34
20.55
23.09
26.80
31.01
34.83
37.59
39.16
40.06
41.20
43.54
47.74
54.08
62.25
71.14
78.20
79.38
70.09
47.42
12.45
-28.35
-64.38
-84.50
-81.19
-53.01
-4.28
57.70
125.46
192.44
252.18
297.17
319.55
313.90
280.52
226.70
164.45
105.34
55.73
15.12
-21.48
-58.93
-98.31
-136.58
-169.45
-195.19
-216.29
-237.84
-263.94
-294.59
-325.68
-351.66
-369.59
-381.12
-391.11
-403.74
-418.76
-430.18
-428.85
-407.23
-363.33
-301.83
-231.61
-161.63
-97.14
-38.36
18.02
75.83
136.60
198.33
256.10
303.89
336.48
350.59
344.92
319.65
276.16
217.62
149.88
81.69
23.32
-16.37
-33.04
-28.60
-10.36
12.09
30.54
40.61
41.93
36.66
27.60
16.89
5.96
-3.94
-11.41
-15.16
-14.72
-10.77
-4.93
1.02
5.83
9.15
11.27
12.61
13.22
12.60
10.02
4.90
-2.79
-12.40
-22.68
-32.04
-38.91
-42.05
-40.83
-35.33
-26.29
-15.00
-3.07
7.79
16.11
20.96
22.22
20.65
17.76
15.31
14.79
16.86
21.14
26.46
31.39
34.82
36.34
36.26
35.37
34.47
34.04
34.08
34.23
34.00
33.07
31.45
29.52
27.80
26.75
26.54
26.97
27.61
27.96
27.70
26.83
25.62
24.54
24.01
24.24
25.11
26.25
27.16
27.47
27.10
26.23
25.31
24.79
25.02
26.17
28.30
31.40
35.41
40.16
45.26
50.21
54.51
57.81
60.04
61.25
61.46
60.61
58.57
55.46
51.76
48.23
45.54
43.72
42.04
39.15
33.68
24.86
12.72
-1.93
-17.87
-33.86
-48.60
-60.87
-69.39
-73.07
-71.49
-65.13
-55.74
-45.90
-38.44
-35.50
-37.91
-45.05
-55.34
-67.09
-79.34
-92.20
-106.36
-122.11
-138.43
-152.93
-162.76
-165.88
-162.04
-152.68
-140.03
-125.76
-110.38
-93.47
-74.67
-54.55
-34.81
-17.65
-4.57
4.35
10.47
15.81
21.95
29.48
37.88
46.16
53.43
59.39
64.37
68.89
73.20
76.97
79.41
79.58
76.89
71.27
63.32
54.06
44.47
35.32
26.96
19.33
12.14
5.12
-1.80
-8.39
-14.13
-18.49
-21.02
-21.51
-20.06
-16.93
-12.51
-7.26
-1.61
3.98
9.04
13.10
15.79
16.88
16.39
14.67
12.23
9.70
7.58
6.14
5.40
5.19
5.30
5.61
6.13
7.00
8.33
10.21
12.63
15.50
18.67
21.89
24.82
27.09
28.27
28.13
26.64
24.11
21.12
18.30
16.09
14.56
13.38
12.06
10.16
7.54
4.45
1.32
-1.42
-3.59
-5.29
-6.83
-8.44
-10.15
-11.72
-12.76
-12.95
-12.14
-10.41
-7.93
-4.90
-1.43
2.39
6.32
9.95
12.63
13.65
12.48
9.02
3.60
-3.08
-10.19
-16.99
-22.90
-27.58
-30.84
-32.54
-32.69
-31.41
-29.00
-25.92
-22.73
-19.99
-18.11
-17.36
-17.83
-19.38
-21.72
-24.37
-26.71
-28.17
-28.32
-27.00
-24.32
-20.62
-16.29
-11.75
-7.37
-3.51
-0.49
1.48
2.44
2.75
3.00
3.86
5.76
8.75
12.42
16.13
19.22
21.25
22.07
21.76
20.49
18.38
15.46
11.73
7.28
2.40
-2.45
-6.75
-10.06
-12.14
-12.95
-12.63
-11.33
-9.26
-6.57
-3.50
-0.36
2.45
4.59
5.91
6.46
6.52
6.47
6.59
6.96
7.48
7.93
8.07
7.73
6.91
5.74
4.44
3.34
2.78
3.00
4.05
5.76
7.68
9.37
10.42
10.64
10.05
8.83
7.21
5.44
3.74
2.36
1.55
1.46
2.09
3.27
4.67
6.00
7.03
7.69
8.03
8.07
7.76
7.01
5.82
4.26
2.60
1.13
0.06
-0.60
-1.00
-1.39
-1.94
-2.70
-3.68
-4.85
-6.28
-8.05
-10.18
-12.50
-14.69
-16.27
-16.87
-16.29
-14.55
-11.92
-8.76
-5.48
-2.37
0.31
2.44
3.93
4.76
4.99
4.69
4.00
3.02
1.93
0.86
0.10
0.02
1.06
3.51
7.32
11.96
16.52
19.96
21.57
21.11
18.96
15.83
12.47
9.45
7.11
5.60
4.99
5.17
5.86
6.55
6.66
5.77
3.90
1.58
-0.47
-1.62
-1.73
-1.17
-0.62
-0.71
-1.67
-3.35
-5.35
-7.30
-9.01
-10.48
-11.79
-12.94
-13.79
-14.13
-13.78
-12.81
-11.49
-10.29
-9.66
-9.92
-11.01
-12.60
-14.04
-14.74
-14.33
-12.74
-10.27
-7.32
-4.28
-1.34
1.46
4.14
6.74
9.20
11.48
13.54
15.37
16.85
17.80
17.95
17.09
15.14
12.31
8.97
5.56
2.43
-0.25
-2.49
-4.37
-5.98
-7.39
-8.55
-9.43
-9.93
-9.96
-9.53
-8.71
-7.69
-6.65
-5.71
-4.86
-4.04
-3.21
-2.49
-2.17
-2.50
-3.62
-5.30
-7.08
-8.30
-8.47
-7.41
-5.37
-2.88
-0.64
0.79
1.10
0.28
-1.46
-3.73
-6.21
-8.67
-11.08
-13.56
-16.38
-19.85
-24.19
-29.41
-35.10
-40.49
-44.53
-46.22
-44.92
-40.60
-33.79
-25.44
-16.53
-7.85
0.24
7.73
14.87
21.98
29.26
36.61
43.69
49.88
54.46
56.90
56.96
54.87
51.16
46.62
42.03
38.03
35.00
33.06
32.02
31.45
30.82
29.55
27.28
23.91
19.71
15.20
10.95
7.44
4.85
3.00
1.50
-0.16
-2.32
-5.09
-8.30
-11.62
-14.66
-17.09
-18.65
-19.17
-18.52
-16.69
-13.81
-10.23
-6.49
-3.16
-0.66
0.84
1.46
1.48
1.21
0.88
0.59
0.35
0.13
-0.18
-0.68
-1.48
-2.65
-4.06
-5.41
-6.24
-6.10
-4.75
-2.31
0.81
3.96
6.50
7.98
8.19
7.24
5.42
3.16
0.99
-0.58
-1.10
-0.30
1.83
5.03
8.82
12.66
15.99
18.43
19.70
19.64
18.19
15.30
11.06
5.76
-0.15
-6.13
-11.71
-16.70
-21.17
-25.36
-29.45
-33.38
-36.77
-38.97
-39.38
-37.56
-33.57
-27.88
-21.39
-15.09
-9.91
-6.42
-4.74
-4.60
-5.37
-6.34
-6.87
-6.52
-5.07
-2.49
1.11
5.47
10.17
14.69
18.38
20.71
21.33
20.28
18.05
15.32
12.79
10.80
9.25
7.66
5.46
2.30
-1.74
-6.16
-10.32
-13.67
-15.94
-17.14
-17.42
-16.94
-15.80
-14.09
-11.97
-9.76
-7.88
-6.74
-6.58
-7.42
-8.98
-10.77
-12.18
-12.63
-11.74
-9.42
-5.92
-1.78
2.34
5.84
8.32
9.66
9.98
9.53
8.59
7.42
6.30
5.52
5.29
5.75
6.82
8.21
9.51
10.33
10.43
9.80
8.63
7.18
5.68
4.25
2.96
1.83
0.93
0.26
-0.24
-0.71
-1.29
-2.03
-2.86
-3.57
-3.92
-3.76
-3.07
-1.99
-0.72
0.53
1.59
2.29
2.54
2.32
1.70
0.84
-0.05
-0.83
-1.47
-2.07
-2.75
-3.60
-4.57
-5.50
-6.14
-6.29
-5.85
-4.90
-3.63
-2.36
-1.34
-0.73
-0.51
-0.49
-0.44
-0.13
0.51
1.43
2.44
3.36
4.03
4.39
4.45
4.31
4.10
4.00
4.17
4.74
5.77
7.23
8.95
10.76
12.39
13.66
14.37
14.44
13.88
12.73
11.13
9.24
7.26
5.42
3.94
2.94
2.47
2.40
2.52
2.59
2.45
2.06
1.47
0.78
0.04
-0.72
-1.50
-2.26
-2.93
-3.41
-3.69
-3.84
-3.97
-4.14
-4.33
-4.43
-4.29
-3.74
-2.68
-1.16
0.69
2.62
4.28
5.36
5.69
5.27
4.34
3.21
2.19
1.47
1.06
0.87
0.82
0.86
0.97
1.13
1.30
1.41
1.42
1.38
1.35
1.40
1.51
1.62
1.58
1.28
0.65
-0.27
-1.35
-2.36
-3.08
-3.34
-3.07
-2.36
-1.41
-0.46
0.25
0.57
0.51
0.11
-0.47
-1.07
-1.41
-1.24
-0.34
1.36
3.68
6.22
8.49
10.02
10.48
9.65
7.38
3.57
-1.68
-7.98
-14.58
-20.49
-24.75
-26.75
-26.34
-23.77
-19.54
-14.08
-7.78
-1.06
5.62
11.63
16.38
19.49
20.87
20.66
19.17
16.68
13.62
10.49
7.93
6.61
6.90
8.75
11.60
14.55
16.76
17.62
16.97
14.85
11.48
7.05
1.81
-3.87
-9.43
-14.24
-17.73
-19.50
-19.41
-17.54
-14.18
-9.73
-4.70
0.33
4.89
8.68
11.65
13.94
15.75
17.16
18.00
17.90
16.43
13.40
9.05
4.11
-0.41
-3.57
-4.84
-4.33
-2.71
-0.85
0.55
1.25
1.47
1.64
2.05
2.65
2.99
2.52
0.89
-1.94
-5.60
-9.59
-13.48
-17.05
-20.22
-23.03
-25.37
-27.11
-28.11
-28.43
-28.37
-28.35
-28.70
-29.42
-30.18
-30.46
-29.71
-27.63
-24.19
-19.69
-14.59
-9.38
-4.52
-0.27
3.25
6.14
8.59
10.90
13.29
15.87
18.58
21.20
23.41
24.81
25.12
24.18
22.06
19.08
15.70
12.46
9.76
7.82
6.61
5.88
5.23
4.35
3.10
1.53
-0.14
-1.71
-3.11
-4.54
-6.31
-8.75
-11.93
-15.63
-19.34
-22.46
-24.53
-25.35
-24.97
-23.60
-21.51
-18.97
-16.27
-13.82
-12.12
-11.68
-12.75
-15.30
-18.81
-22.58
-25.81
-27.97
-28.87
-28.66
-27.73
-26.48
-25.16
-23.75
-21.96
-19.35
-15.51
-10.33
-4.04
2.68
9.05
14.36
18.34
21.27
23.92
27.20
31.91
38.43
46.72
56.35
66.60
76.51
84.90
90.58
92.57
90.28
83.61
72.71
57.77
38.89
16.35
-9.01
-35.44
-60.25
-80.31
-92.85
-96.40
-91.25
-79.43
-64.00
-48.04
-33.82
-22.48
-14.32
-9.28
-7.29
-8.07
-10.70
-13.39
-13.81
-9.87
-0.79
12.42
27.32
41.06
51.51
57.93
60.81
61.25
60.42
59.05
57.47
55.73
53.78
51.51
48.90
46.11
43.39
40.97
38.83
36.57
33.55
29.20
23.46
16.93
10.74
5.99
3.13
1.55
-0.26
-4.13
-11.28
-21.55
-33.21
-43.55
-50.04
-51.63
-49.35
-46.09
-45.31
-49.39
-58.42
-70.00
-80.35
-86.05
-85.59
-79.90
-71.72
-64.35
-60.70
-62.75
-71.56
-86.87
-106.37
-125.04
-135.46
-129.86
-103.67
-58.71
-4.19
46.16
79.71
90.64
82.50
66.00
52.99
50.24
56.61
64.83
66.64
57.84
40.14
18.98
-0.75
-18.06
-36.21
-59.42
-88.85
-120.02
-144.00
-151.88
-139.81
-111.24
-75.39
-42.72
-20.00
-7.87
-1.53
6.09
20.83
45.18
78.12
116.14
154.53
188.59
214.29
229.19
232.89
227.19
215.22
200.12
183.67
166.06
146.79
125.62
103.12
80.57
59.15
39.61
22.18
6.82
-6.42
-17.35
-25.98
-32.67
-38.09
-43.10
-48.46
-54.64
-61.73
-69.36
-76.84
-83.42
-88.50
-91.88
-93.76
-94.54
-94.61
-94.17
-93.25
-91.80
-89.75
-87.05
-83.68
-79.84
-76.19
-74.02
-74.73
-78.74
-84.33
-87.40
-82.62
-65.66
-35.44
5.10
50.27
94.22
133.30
166.76
195.45
219.58
237.15
244.35
237.36
214.67
178.06
131.81
80.50
27.19
-27.05
-82.00
-136.50
-187.37
-229.73
-258.85
-272.01
-269.59
-254.45
-230.22
-199.41
-162.67
-119.51
-70.05
-16.49
36.66
83.68
119.49
141.19
148.57
143.60
129.39
109.33
86.55
63.80
43.59
28.03
18.52
15.27
17.13
21.81
26.57
29.04
27.90
23.12
15.75
7.21
-1.40
-9.71
-18.09
-27.08
-36.78
-46.44
-54.58
-59.45
-59.73
-54.93
-45.34
-31.70
-14.99
3.73
23.09
41.31
56.24
65.95
69.44
67.14
60.68
52.07
42.72
32.77
21.24
6.85
-10.85
-30.92
-51.14
-68.86
-82.00
-89.73
-92.40
-91.16
-87.31
-81.98
-76.27
-71.41
-68.82
-69.60
-73.81
-79.86
-84.70
-84.85
-77.71
-62.80
-41.90
-18.20
5.03
25.81
43.99
61.09
79.26
100.16
124.01
149.25
172.96
191.76
202.90
205.10
199.02
186.82
171.47
155.81
142.00
131.27
124.04
120.09
118.67
118.64
118.65
117.52
114.59
109.94
104.33
98.82
94.30
91.06
88.54
85.60
80.78
72.70
60.46
43.67
22.52
-2.46
-30.51
-60.91
-93.16
-126.92
-162.05
-198.08
-234.02
-268.22
-298.59
-323.08
-340.25
-349.49
-351.01
-345.65
-334.76
-320.42
-305.57
-293.68
-287.57
-288.10
-293.23
-298.38
-298.19
-288.46
-267.43
-235.48
-194.28
-146.30
-95.20
-46.87
-8.89
12.05
14.04
2.33
-12.07
-17.50
-7.59
15.81
44.65
70.70
90.98
109.44
133.31
167.17
208.78
249.71
280.31
295.31
296.57
291.11
286.60
287.01
291.44
295.97
296.96
293.31
286.51
279.07
272.21
264.56
252.74
232.61
200.83
156.25
100.77
39.86
-18.08
-63.70
-89.76
-94.06
-80.70
-58.55
-37.55
-24.57
-21.08
-23.63
-26.85
-26.67
-22.26
-15.50
-9.05
-4.35
-1.06
2.13
6.09
10.37
13.43
13.60
10.15
3.82
-3.39
-9.16
-11.88
-11.17
-7.91
-3.74
-0.30
1.45
1.60
1.17
1.65
4.25
9.33
16.14
23.14
28.66
31.54
31.50
29.01
24.93
19.96
14.38
8.03
0.47
-8.76
-19.92
-32.96
-47.29
-61.90
-75.57
-87.28
-96.54
-103.52
-108.67
-112.29
-114.05
-112.96
-107.80
-97.73
-82.72
-63.74
-42.54
-21.24
-1.84
14.18
26.23
34.65
40.45
44.82
48.63
52.06
54.79
56.41
56.86
56.57
56.25
56.38
57.03
57.82
58.19
57.72
56.17
53.51
49.78
45.05
39.40
32.94
25.83
18.22
10.36
2.61
-4.48
-10.36
-14.58
-17.06
-18.12
-18.42
-18.69
-19.46
-20.91
-22.84
-24.82
-26.34
-27.10
-27.10
-26.59
-25.94
-25.34
-24.65
-23.52
-21.60
-18.80
-15.42
-12.11
-9.56
-8.31
-8.55
-10.10
-12.51
-15.27
-17.89
-20.11
-21.95
-23.55
-25.08
-26.55
-27.75
-28.39
-28.23
-27.30
-25.85
-24.28
-22.85
-21.57
-20.23
-18.53
-16.32
-13.72
-11.01
-8.58
-6.71
-5.57
-5.11
-5.25
-5.85
-6.77
-7.97
-9.36
-10.86
-12.23
-13.24
-13.63
-13.33
-12.46
-11.44
-10.83
-11.12
-12.53
-14.86
-17.63
-20.18
-21.97
-22.62
-22.00
-20.11
-17.08
-13.17
-8.72
-4.20
-0.07
3.38
6.07
8.17
9.88
11.28
12.20
12.31
11.34
9.27
6.50
3.70
1.57
0.60
0.91
2.27
4.29
6.55
8.69
10.41
11.38
11.28
9.83
6.97
2.95
-1.74
-6.45
-10.65
-13.99
-16.37
-17.87
-18.58
-18.51
-17.60
-15.75
-12.87
-9.00
-4.26
1.10
6.79
12.44
17.72
22.28
25.76
27.81
28.05
26.16
22.00
15.79
8.14
-0.23
-8.89
-18.03
-28.42
-40.91
-55.68
-71.80
-87.12
-98.97
-104.56
-101.85
-90.12
-70.36
-45.66
-20.94
-2.14
5.19
-2.36
-24.84
-58.54
-96.66
-130.76
-152.52
-155.70
-137.75
-100.69
-50.80
3.12
52.42
91.05
116.75
130.44
134.58
131.38
122.29
108.67
92.62
77.13
65.25
58.50
55.89
54.70
52.10
46.59
38.27
28.07
16.80
4.64
-8.65
-22.69
-35.49
-43.42
-42.22
-29.05
-4.59
26.04
54.17
69.89
65.07
35.93
-15.65
-82.35
-153.20
-216.33
-261.69
-283.17
-279.49
-253.77
-212.06
-161.64
-108.96
-58.10
-10.53
34.04
76.25
116.00
152.15
183.00
207.17
224.27
234.76
239.41
238.56
231.78
218.25
197.77
171.71
143.17
116.20
94.19
78.49
67.98
59.87
51.26
40.61
28.18
15.60
4.97
-2.38
-6.45
-8.32
-9.63
-11.83
-15.60
-20.65
-25.95
-30.23
-32.54
-32.73
-31.41
-29.68
-28.57
-28.48
-29.13
-29.79
-29.76
-28.78
-27.23
-25.81
-25.11
-25.27
-25.88
-26.22
-25.63
-23.87
-21.29
-18.61
-16.58
-15.67
-15.89
-16.90
-18.20
-19.34
-20.03
-20.13
-19.56
-18.25
-16.16
-13.42
-10.24
-6.98
-3.98
-1.51
0.32
1.58
2.41
3.00
3.45
3.79
3.97
3.91
3.59
3.04
2.34
1.57
0.81
0.06
-0.67
-1.37
-1.98
-2.45
-2.73
-2.85
-2.99
-3.31
-3.95
-4.91
-6.09
-7.28
-8.35
-9.27
-10.10
-10.86
-11.47
-11.66
-11.13
-9.71
-7.46
-4.73
-1.97
0.42
2.24
3.48
4.30
4.81
5.12
5.27
5.31
5.31
5.37
5.51
5.70
5.84
5.86
5.75
5.57
5.41
5.31
5.25
5.10
4.75
4.07
3.06
1.78
0.33
-1.17
-2.64
-4.00
-5.17
-6.04
-6.50
-6.52
-6.20
-5.80
-5.58
-5.69
-6.03
-6.31
-6.18
-5.36
-3.82
-1.77
0.49
2.63
4.42
5.66
6.23
6.10
5.32
4.14
2.89
1.91
1.36
1.24
1.34
1.43
1.41
1.28
1.18
1.19
1.40
1.73
2.08
2.35
2.43
2.21
1.63
0.65
-0.67
-2.18
-3.68
-5.03
-6.14
-7.08
-7.97
-8.94
-10.04
-11.16
-11.99
-12.17
-11.36
-9.44
-6.60
-3.29
-0.04
2.67
4.65
5.96
6.83
7.44
7.91
8.17
8.15
7.84
7.33
6.77
6.34
6.08
5.94
5.78
5.44
4.90
4.22
3.53
2.98
2.65
2.49
2.35
2.05
1.50
0.67
-0.39
-1.60
-2.88
-4.20
-5.55
-6.93
-8.29
-9.56
-10.60
-11.20
-11.11
-10.13
-8.18
-5.43
-2.23
0.95
3.71
5.86
7.34
8.27
8.77
8.89
8.66
8.07
7.21
6.23
5.27
4.47
3.89
3.52
3.31
3.26
3.33
3.46
3.58
3.52
3.14
2.32
1.02
-0.64
-2.48
-4.27
-5.74
-6.75
-7.26
-7.30
-6.98
-6.40
-5.67
-4.89
-4.17
-3.61
-3.21
-2.85
-2.32
-1.41
-0.07
1.55
3.14
4.34
4.96
5.03
4.75
4.37
4.00
3.57
2.95
2.03
0.86
-0.35
-1.38
-2.04
-2.29
-2.24
-2.00
-1.72
-1.45
-1.22
-1.08
-1.08
-1.26
-1.64
-2.15
-2.73
-3.27
-3.78
-4.28
-4.82
-5.45
-6.10
-6.65
-6.91
-6.69
-5.85
-4.37
-2.35
-0.01
2.34
4.38
5.85
6.64
6.76
6.34
5.57
4.61
3.58
2.55
1.59
0.81
0.31
0.15
0.28
0.59
0.91
1.12
1.16
1.03
0.81
0.53
0.20
-0.22
-0.77
-1.43
-2.22
-3.13
-4.16
-5.31
-6.51
-7.61
-8.35
-8.44
-7.65
-5.94
-3.47
-0.61
2.18
4.57
6.35
7.53
8.22
8.48
8.30
7.61
6.40
4.77
3.03
1.53
0.57
0.24
0.37
0.64
0.70
0.39
-0.25
-0.96
-1.47
-1.64
-1.54
-1.38
-1.42
-1.82
-2.56
-3.54
-4.61
-5.59
-6.29
-6.46
-5.89
-4.43
-2.12
0.72
3.59
5.99
7.57
8.30
8.37
8.11
7.77
7.44
7.04
6.44
5.54
4.37
3.10
1.95
1.10
0.60
0.35
0.18
-0.09
-0.52
-1.06
-1.60
-2.02
-2.33
-2.63
-3.07
-3.81
-4.86
-6.12
-7.39
-8.40
-8.91
-8.73
-7.76
-6.05
-3.80
-1.30
1.14
3.29
5.03
6.33
7.21
7.66
7.67
7.26
6.48
5.49
4.49
3.65
3.07
2.79
2.74
2.84
3.00
3.13
3.16
3.06
2.85
2.60
2.41
2.38
2.50
2.67
2.67
2.27
1.33
-0.07
-1.63
-2.92
-3.52
-3.18
-1.95
-0.11
1.89
3.63
4.79
5.20
4.89
3.99
2.67
1.14
-0.49
-2.14
-3.82
-5.54
-7.25
-8.85
-10.19
-11.16
-11.78
-12.27
-12.88
-13.88
-15.34
-17.10
-18.85
-20.22
-21.02
-21.25
-21.08
-20.71
-20.27
-19.69
-18.79
-17.36
-15.26
-12.50
-9.19
-5.55
-1.74
2.12
5.97
9.66
12.93
15.34
16.42
15.85
13.65
10.30
6.57
3.30
1.09
0.14
0.25
0.97
1.86
2.64
3.25
3.79
4.39
5.15
6.08
7.16
8.26
9.21
9.78
9.77
9.02
7.58
5.77
4.14
3.32
3.75
5.46
8.11
11.09
13.72
15.58
16.48
16.46
15.64
14.13
12.02
9.46
6.72
4.15
2.08
0.74
0.13
0.07
0.32
0.62
0.86
1.02
1.10
1.09
0.91
0.43
-0.44
-1.74
-3.39
-5.26
-7.15
-8.94
-10.46
-11.58
-12.15
-12.00
-11.05
-9.26
-6.80
-3.94
-1.02
1.64
3.86
5.61
7.00
8.10
8.95
9.48
9.54
9.02
7.93
6.41
4.67
2.93
1.30
-0.18
-1.45
-2.48
-3.12
-3.34
-3.17
-2.79
-2.41
-2.23
-2.35
-2.77
-3.50
-4.55
-5.94
-7.59
-9.22
-10.42
-10.74
-9.94
-8.10
-5.60
-2.93
-0.50
1.48
3.00
4.12
4.87
5.20
5.06
4.52
3.83
3.25
2.99
3.05
3.24
3.30
3.06
2.55
1.96
1.50
1.31
1.36
1.50
1.53
1.30
0.72
-0.23
-1.50
-3.07
-4.78
-6.46
-7.83
-8.56
-8.38
-7.20
-5.14
-2.52
0.23
2.76
4.81
6.28
7.17
7.50
7.28
6.54
5.38
3.95
2.51
1.29
0.44
-0.00
-0.15
-0.15
-0.13
-0.17
-0.26
-0.31
-0.29
-0.24
-0.23
-0.43
-0.93
-1.77
-2.91
-4.22
-5.62
-6.99
-8.18
-8.95
-9.03
-8.16
-6.29
-3.58
-0.49
2.45
4.75
6.15
6.67
6.45
5.77
4.80
3.66
2.45
1.26
0.25
-0.51
-0.98
-1.22
-1.37
-1.50
-1.66
-1.80
-1.87
-1.87
-1.86
-1.89
-2.04
-2.27
-2.51
-2.72
-2.88
-3.07
-3.35
-3.70
-3.99
-3.93
-3.23
-1.75
0.41
2.94
5.34
7.19
8.24
8.46
8.00
7.08
5.89
4.52
3.01
1.43
-0.09
-1.39
-2.25
-2.59
-2.46
-2.08
-1.74
-1.62
-1.76
-2.00
-2.11
-1.91
-1.49
-1.05
-0.88
-1.16
-1.89
-2.91
-3.95
-4.78
-5.19
-5.02
-4.20
-2.72
-0.73
1.53
3.75
5.67
7.15
8.12
8.63
8.68
8.25
7.28
5.83
4.07
2.25
0.67
-0.44
-1.02
-1.20
-1.20
-1.29
-1.65
-2.32
-3.17
-3.99
-4.57
-4.80
-4.71
-4.42
-4.13
-4.00
-4.14
-4.57
-5.18
-5.84
-6.35
-6.50
-6.14
-5.26
-4.00
-2.58
-1.25
-0.15
0.66
1.20
1.47
1.43
1.02
0.23
-0.78
-1.75
-2.35
-2.35
-1.73
-0.71
0.38
1.23
1.70
1.84
1.79
1.71
1.64
1.58
1.45
1.23
1.01
0.91
0.96
1.11
1.18
1.08
0.88
0.88
1.42
2.78
4.95
7.59
10.19
12.21
13.40
13.72
13.34
12.44
11.18
9.59
7.71
5.66
3.67
2.01
0.85
0.18
-0.19
-0.49
-0.89
-1.42
-1.93
-2.29
-2.46
-2.57
-2.87
-3.53
-4.61
-5.93
-7.22
-8.21
-8.72
-8.69
-8.16
-7.16
-5.74
-3.91
-1.80
0.45
2.62
4.56
6.17
7.43
8.35
8.90
9.05
8.72
7.92
6.72
5.30
3.95
2.89
2.25
1.93
1.76
1.49
0.98
0.27
-0.50
-1.14
-1.59
-1.93
-2.40
-3.21
-4.43
-5.95
-7.51
-8.82
-9.62
-9.68
-8.89
-7.23
-4.84
-2.06
0.67
2.90
4.37
5.05
5.13
4.89
4.49
4.00
3.37
2.58
1.68
0.84
0.22
-0.14
-0.28
-0.40
-0.62
-0.99
-1.43
-1.81
-2.08
-2.31
-2.64
-3.22
-4.10
-5.22
-6.43
-7.59
-8.50
-9.02
-8.96
-8.18
-6.63
-4.42
-1.83
0.74
2.95
4.62
5.74
6.47
7.00
7.43
7.70
7.65
7.10
6.00
4.51
2.91
1.57
0.77
0.57
0.82
1.23
1.49
1.41
0.96
0.22
-0.68
-1.66
-2.66
-3.62
-4.49
-5.22
-5.78
-6.23
-6.62
-6.99
-7.25
-7.22
-6.65
-5.36
-3.33
-0.70
2.21
5.03
7.43
9.19
10.18
10.43
10.06
9.22
8.10
6.91
5.86
5.07
4.65
4.57
4.70
4.90
5.05
5.05
4.89
4.58
4.16
3.67
3.18
2.70
2.21
1.55
0.55
-0.99
-3.10
-5.61
-8.17
-10.34
-11.74
-12.08
-11.28
-9.38
-6.59
-3.31
-0.02
2.75
4.57
5.26
4.88
3.70
2.09
0.32
-1.37
-2.84
-4.00
-4.78
-5.13
-5.09
-4.74
-4.23
-3.70
-3.25
-2.96
-2.83
-2.80
-2.75
-2.56
-2.17
-1.58
-0.93
-0.38
-0.06
-0.06
-0.42
-1.12
-2.11
-3.29
-4.43
-5.19
-5.19
-4.21
-2.28
0.28
2.99
5.35
7.04
7.94
8.05
7.53
6.53
5.24
3.78
2.30
0.88
-0.41
-1.49
-2.28
-2.70
-2.74
-2.51
-2.18
-1.95
-1.93
-2.11
-2.35
-2.47
-2.36
-2.01
-1.56
-1.25
-1.31
-1.94
-3.12
-4.69
-6.24
-7.30
-7.44
-6.46
-4.50
-1.94
0.67
2.82
4.17
4.66
4.43
3.79
3.06
2.51
2.30
2.44
2.87
3.42
3.94
4.31
4.51
4.54
4.49
4.43
4.38
4.30
4.10
3.67
2.91
1.84
0.54
-0.81
-2.06
-3.08
-3.86
-4.47
-4.98
-5.39
-5.61
-5.43
-4.62
-3.12
-1.05
1.26
3.38
4.96
5.85
6.13
6.08
5.94
5.87
5.84
5.76
5.59
5.38
5.24
5.33
5.69
6.35
7.26
8.36
9.59
10.88
12.09
13.07
13.70
14.01
14.19
14.52
15.26
16.47
17.97
19.44
20.55
21.24
21.80
22.89
25.35
29.81
36.38
44.50
53.00
60.45
65.67
68.10
68.04
66.58
65.27
65.61
68.53
73.85
80.01
84.34
83.70
75.68
59.67
37.38
12.45
-10.67
-28.20
-38.18
-40.82
-38.19
-33.27
-28.98
-27.44
-29.65
-35.42
-43.58
-52.33
-59.68
-64.02
-64.56
-61.67
-56.71
-51.43
-47.19
-44.35
-42.17
-39.34
-34.82
-28.54
-21.46
-15.08
-10.71
-9.04
-10.16
-14.12
-21.21
-31.88
-46.23
-63.58
-82.31
-100.45
-116.30
-128.98
-138.55
-145.67
-151.34
-156.61
-162.63
-170.61
-181.69
-196.53
-214.84
-235.16
-254.92
-270.94
-280.02
-279.72
-268.78
-247.41
-217.04
-179.86
-138.12
-93.49
-46.79
1.97
53.04
106.01
159.10
209.07
251.90
284.12
304.08
312.66
312.81
308.34
302.46
296.82
291.39
285.28
277.66
268.54
258.74
249.46
241.47
234.75
228.41
221.14
211.65
199.19
183.75
165.90
146.44
125.94
104.38
81.17
55.37
26.30
-5.93
-40.11
-74.01
-104.98
-130.67
-149.70
-161.94
-168.42
-170.79
-171.06
-171.13
-172.59
-176.28
-181.90
-187.76
-191.14
-189.24
-180.47
-165.26
-146.09
-126.36
-108.81
-94.31
-81.72
-68.87
-54.21
-38.07
-22.87
-12.15
-9.19
-15.82
-31.87
-55.16
-81.79
-106.46
-122.97
-125.29
-109.27
-74.41
-24.90
31.02
83.32
123.19
145.69
151.07
144.36
133.36
125.48
124.71
130.25
137.30
140.04
134.99
123.11
108.98
97.68
91.40
87.94
82.39
70.66
52.71
33.06
18.14
12.36
15.42
22.74
28.34
28.24
22.26
13.32
5.44
1.36
1.53
4.43
7.82
10.07
10.63
9.87
8.42
6.53
3.77
-0.79
-8.08
-18.47
-31.45
-45.61
-59.09
-70.07
-77.35
-80.56
-80.08
-76.69
-71.25
-64.54
-57.30
-50.21
-43.91
-38.79
-34.80
-31.48
-28.09
-23.97
-18.83
-12.81
-6.32
0.20
6.52
12.69
18.86
25.07
31.08
36.45
40.71
43.55
44.94
45.07
44.28
42.83
40.87
38.48
35.72
32.72
29.65
26.67
23.89
21.25
18.59
15.68
12.32
8.37
3.82
-1.20
-6.34
-11.15
-15.14
-17.96
-19.51
-19.94
-19.61
-18.90
-18.20
-17.80
-18.02
-19.10
-21.22
-24.28
-27.87
-31.29
-33.81
-34.87
-34.28
-32.18
-28.92
-24.85
-20.31
-15.60
-11.07
-7.16
-4.25
-2.55
-2.03
-2.39
-3.22
-4.08
-4.66
-4.77
-4.31
-3.24
-1.55
0.69
3.30
5.99
8.42
10.28
11.44
11.93
11.92
11.61
11.14
10.51
9.57
8.17
6.19
3.59
0.45
-3.05
-6.75
-10.42
-13.94
-17.20
-20.14
-22.72
-24.88
-26.57
-27.73
-28.30
-28.27
-27.59
-26.16
-23.82
-20.35
-15.70
-10.04
-3.83
2.27
7.54
11.45
13.79
14.61
14.24
13.06
11.49
9.89
8.50
7.46
6.81
6.47
6.31
6.16
5.90
5.41
4.61
3.48
2.02
0.33
-1.46
-3.20
-4.80
-6.24
-7.55
-8.76
-9.82
-10.53
-10.57
-9.66
-7.68
-4.84
-1.63
1.28
3.34
4.29
4.23
3.52
2.59
1.74
1.03
0.40
-0.28
-1.04
-1.80
-2.45
-2.86
-2.94
-2.68
-2.08
-1.20
-0.10
1.13
2.34
3.43
4.32
5.03
5.68
6.51
7.84
9.92
12.88
16.61
20.80
25.04
29.01
32.59
35.91
39.17
42.45
45.49
47.71
48.47
47.49
45.29
43.24
43.12
46.40
53.43
63.05
72.78
79.48
80.26
73.10
57.30
33.42
3.18
-31.00
-66.41
-100.58
-131.65
-158.73
-181.57
-200.19
-214.08
-221.71
-220.54
-207.75
-181.46
-142.05
-92.92
-40.09
9.31
49.11
75.95
89.95
93.97
91.94
87.18
81.64
76.22
71.66
68.99
69.15
72.00
75.53
75.99
69.21
52.34
25.29
-9.06
-45.88
-79.90
-106.90
-124.27
-130.84
-126.42
-111.51
-87.44
-56.77
-23.23
8.93
36.14
56.55
70.35
78.87
83.31
83.46
77.83
64.63
43.46
16.25
-12.89
-39.07
-58.24
-68.24
-68.85
-61.11
-46.73
-27.72
-6.52
14.04
31.04
42.24
46.83
45.60
40.59
34.17
28.28
23.95
21.30
19.85
18.87
17.66
15.74
12.90
9.35
5.66
2.56
0.72
0.44
1.55
3.47
5.43
6.72
6.94
6.03
4.25
2.08
0.03
-1.50
-2.40
-2.76
-2.87
-3.04
-3.42
-3.98
-4.52
-4.77
-4.57
-3.97
-3.16
-2.46
-2.12
-2.26
-2.77
-3.44
-4.03
-4.35
-4.41
-4.32
-4.28
-4.43
-4.78
-5.21
-5.48
-5.26
-4.24
-2.29
0.50
3.72
6.80
9.13
10.33
10.38
9.54
8.22
6.76
5.30
3.84
2.35
0.87
-0.44
-1.40
-1.86
-1.84
-1.47
-0.92
-0.38
0.04
0.29
0.35
0.19
-0.24
-0.94
-1.88
-2.91
-3.84
-4.48
-4.79
-4.84
-4.83
-4.91
-5.14
-5.34
-5.21
-4.39
-2.68
-0.10
3.04
6.21
8.86
10.61
11.36
11.31
10.81
10.17
9.54
8.87
8.03
6.99
5.86
4.85
4.15
3.81
3.66
3.45
2.94
2.07
0.97
-0.18
-1.19
-1.98
-2.64
-3.32
-4.10
-5.01
-5.99
-6.92
-7.73
-8.38
-8.85
-9.08
-8.93
-8.20
-6.73
-4.49
-1.69
1.27
3.92
5.91
7.07
7.43
7.19
6.57
5.74
4.81
3.87
2.95
2.11
1.43
0.93
0.64
0.51
0.49
0.51
0.50
0.43
0.30
0.13
-0.06
-0.25
-0.52
-0.90
-1.44
-2.12
-2.92
-3.78
-4.73
-5.75
-6.78
-7.61
-7.87
-7.21
-5.41
-2.58
0.88
4.39
7.34
9.31
10.20
10.12
9.38
8.25
6.98
5.70
4.43
3.22
2.11
1.20
0.64
0.50
0.71
1.05
1.25
1.08
0.48
-0.41
-1.34
-2.10
-2.55
-2.74
-2.82
-3.04
-3.59
-4.58
-5.97
-7.57
-9.03
-9.92
-9.83
-8.52
-6.02
-2.65
1.03
4.44
7.09
8.80
9.58
9.65
9.22
8.44
7.38
6.09
4.69
3.34
2.22
1.43
0.90
0.52
0.12
-0.40
-1.03
-1.67
-2.23
-2.64
-2.91
-3.10
-3.32
-3.68
-4.22
-4.94
-5.79
-6.68
-7.54
-8.27
-8.74
-8.71
-7.95
-6.32
-3.90
-1.01
1.87
4.30
6.01
7.00
7.49
7.67
7.70
7.55
7.11
6.31
5.17
3.83
2.50
1.37
0.53
-0.05
-0.46
-0.82
-1.22
-1.63
-2.03
-2.35
-2.58
-2.80
-3.13
-3.62
-4.28
-5.04
-5.76
-6.37
-6.84
-7.12
-7.12
-6.65
-5.46
-3.45
-0.71
2.37
5.20
7.26
8.30
8.37
7.76
6.86
5.91
5.03
4.22
3.44
2.74
2.19
1.87
1.77
1.79
1.74
1.45
0.85
0.00
-0.95
-1.85
-2.64
-3.38
-4.18
-5.18
-6.42
-7.82
-9.26
-10.66
-11.95
-13.01
-13.66
-13.61
-12.62
-10.62
-7.82
-4.72
-1.91
0.19
1.46
2.09
2.44
2.82
3.36
4.02
4.70
5.32
5.84
6.25
6.45
6.28
5.55
4.17
2.23
0.00
-2.16
-3.95
-5.22
-5.99
-6.35
-6.46
-6.47
-6.49
-6.59
-6.83
-7.18
-7.52
-7.60
-7.08
-5.68
-3.26
0.00
3.68
7.19
9.99
11.76
12.41
12.06
10.90
9.11
6.78
4.09
1.29
-1.26
-3.18
-4.18
-4.26
-3.69
-2.93
-2.46
-2.62
-3.52
-4.93
-6.49
-7.72
-8.20
-7.74
-6.37
-4.41
-2.32
-0.58
0.50
0.93
1.05
1.47
2.79
5.40
9.29
13.96
18.65
22.50
24.86
25.45
24.34
21.96
18.90
15.77
13.12
11.31
10.49
10.47
10.76
10.74
9.74
7.40
3.69
-1.02
-6.06
-10.72
-14.41
-16.80
-17.81
-17.61
-16.49
-14.85
-13.08
-11.54
-10.50
-10.09
-10.19
-10.48
-10.52
-9.88
-8.37
-6.14
-3.60
-1.31
0.40
1.53
2.42
3.51
5.04
6.91
8.66
9.78
9.94
9.22
7.98
6.72
5.82
5.37
5.24
5.14
4.81
4.12
3.09
1.87
0.64
-0.46
-1.38
-2.16
-2.89
-3.67
-4.55
-5.53
-6.60
-7.61
-8.37
-8.61
-8.05
-6.53
-4.15
-1.25
1.63
4.03
5.66
6.55
6.94
7.05
7.01
6.76
6.19
5.25
4.05
2.84
1.87
1.24
0.85
0.44
-0.20
-1.20
-2.42
-3.63
-4.53
-4.99
-4.99
-4.71
-4.40
-4.32
-4.66
-5.52
-6.85
-8.46
-9.99
-11.02
-11.12
-10.02
-7.74
-4.59
-1.11
2.09
4.53
6.01
6.64
6.72
6.54
6.28
5.98
5.59
5.06
4.45
3.89
3.56
3.53
3.74
3.97
3.99
3.61
2.82
1.74
0.61
-0.36
-1.09
-1.67
-2.24
-2.94
-3.84
-4.86
-5.90
-6.81
-7.44
-7.61
-7.11
-5.76
-3.55
-0.71
2.34
5.05
7.07
8.28
8.85
9.05
9.12
9.07
8.82
8.24
7.36
6.34
5.46
4.92
4.79
4.98
5.27
5.44
5.34
4.92
4.25
3.44
2.61
1.84
1.11
0.35
-0.56
-1.73
-3.18
-4.86
-6.62
-8.18
-9.26
-9.51
-8.72
-6.86
-4.15
-1.04
1.88
4.15
5.53
6.11
6.19
6.09
6.01
5.93
5.73
5.30
4.65
3.88
3.13
2.47
1.90
1.41
1.00
0.72
0.60
0.60
0.59
0.46
0.12
-0.42
-1.07
-1.72
-2.35
-3.00
-3.76
-4.76
-6.05
-7.58
-9.20
-10.55
-11.20
-10.75
-9.00
-6.07
-2.40
1.42
4.82
7.43
9.15
10.02
10.17
9.68
8.67
7.29
5.76
4.37
3.28
2.56
2.09
1.73
1.33
0.90
0.50
0.23
0.09
-0.03
-0.27
-0.74
-1.43
-2.29
-3.19
-4.06
-4.88
-5.66
-6.40
-7.04
-7.54
-7.89
-8.10
-8.16
-7.93
-7.18
-5.61
-3.11
0.19
3.87
7.30
9.91
11.33
11.57
10.91
9.80
8.67
7.78
7.15
6.68
6.17
5.50
4.65
3.72
2.87
2.21
1.79
1.54
1.37
1.18
0.92
0.54
0.02
-0.66
-1.47
-2.35
-3.19
-3.90
-4.48
-4.97
-5.47
-6.04
-6.73
-7.53
-8.40
-9.21
-9.72
-9.60
-8.48
-6.13
-2.67
1.44
5.52
8.85
10.97
11.80
11.59
10.72
9.58
8.37
7.20
6.10
5.08
4.15
3.33
2.62
2.01
1.53
1.19
1.00
0.93
0.94
0.96
0.92
0.79
0.59
0.34
0.04
-0.32
-0.75
-1.32
-2.00
-2.79
-3.64
-4.52
-5.35
-6.05
-6.48
-6.44
-5.74
-4.23
-1.97
0.73
3.37
5.43
6.59
6.78
6.24
5.35
4.47
3.76
3.22
2.70
2.08
1.27
0.29
-0.77
-1.80
-2.72
-3.50
-4.09
-4.44
-4.52
-4.31
-3.84
-3.22
-2.63
-2.21
-2.08
-2.24
-2.61
-3.05
-3.44
-3.74
-4.01
-4.37
-4.88
-5.53
-6.10
-6.27
-5.67
-4.06
-1.43
1.87
5.30
8.29
10.37
11.37
11.39
10.72
9.68
8.51
7.34
6.16
4.99
3.80
2.63
1.56
0.64
-0.06
-0.47
-0.57
-0.38
-0.01
0.34
0.51
0.36
-0.10
-0.73
-1.36
-1.85
-2.18
-2.47
-2.88
-3.53
-4.46
-5.53
-6.52
-7.09
-6.98
-5.96
-4.04
-1.44
1.42
4.06
6.08
7.23
7.57
7.30
6.74
6.11
5.51
4.94
4.28
3.48
2.51
1.49
0.55
-0.19
-0.71
-1.09
-1.43
-1.84
-2.30
-2.73
-2.98
-3.00
-2.85
-2.65
-2.64
-2.94
-3.60
-4.48
-5.44
-6.25
-6.72
-6.66
-5.93
-4.41
-2.14
0.67
3.66
6.33
8.26
9.23
9.27
8.60
7.48
6.11
4.60
2.97
1.28
-0.35
-1.73
-2.70
-3.19
-3.27
-3.13
-2.97
-2.97
-3.17
-3.47
-3.73
-3.83
-3.76
-3.61
-3.58
-3.78
-4.26
-4.92
-5.63
-6.27
-6.82
-7.28
-7.51
-7.27
-6.24
-4.18
-1.18
2.33
5.67
8.14
9.36
9.36
8.50
7.31
6.17
5.21
4.32
3.27
1.96
0.45
-1.01
-2.14
-2.75
-2.89
-2.76
-2.59
-2.54
-2.59
-2.67
-2.69
-2.67
-2.73
-3.01
-3.59
-4.44
-5.44
-6.46
-7.36
-8.03
-8.35
-8.15
-7.26
-5.55
-3.02
0.09
3.37
6.32
8.51
9.78
10.21
10.11
9.76
9.32
8.69
7.75
6.38
4.66
2.85
1.23
-0.01
-0.83
-1.35
-1.74
-2.14
-2.60
-3.10
-3.57
-3.94
-4.14
-4.22
-4.21
-4.25
-4.40
-4.75
-5.31
-6.01
-6.82
-7.59
-8.20
-8.40
-7.91
-6.52
-4.22
-1.25
1.91
4.70
6.68
7.67
7.79
7.35
6.71
6.11
5.64
5.21
4.65
3.85
2.81
1.64
0.52
-0.39
-1.05
-1.51
-1.92
-2.37
-2.89
-3.42
-3.88
-4.17
-4.29
-4.30
-4.28
-4.36
-4.65
-5.20
-6.04
-7.04
-7.96
-8.43
-8.11
-6.76
-4.46
-1.52
1.53
4.17
6.04
7.00
7.18
6.79
6.09
5.28
4.48
3.74
3.08
2.51
2.01
1.56
1.11
0.70
0.33
0.03
-0.19
-0.37
-0.50
-0.60
-0.60
-0.46
-0.20
0.04
0.08
-0.23
-0.93
-1.92
-3.05
-4.18
-5.19
-5.95
-6.30
-6.03
-4.98
-3.16
-0.79
1.73
4.00
5.79
7.05
7.89
8.42
8.66
8.50
7.84
6.69
5.22
3.75
2.60
1.95
1.77
1.87
1.91
1.64
0.94
-0.11
-1.26
-2.27
-2.96
-3.31
-3.42
-3.45
-3.55
-3.83
-4.34
-5.13
-6.16
-7.28
-8.17
-8.45
-7.72
-5.82
-2.91
0.57
3.98
6.75
8.56
9.35
9.35
8.85
8.10
7.28
6.41
5.47
4.44
3.31
2.12
0.98
0.02
-0.65
-0.98
-1.06
-1.08
-1.20
-1.56
-2.16
-2.91
-3.73
-4.56
-5.37
-6.14
-6.81
-7.33
-7.67
-7.97
-8.38
-9.01
-9.70
-10.06
-9.59
-7.93
-5.09
-1.47
2.25
5.37
7.44
8.38
8.42
7.90
7.13
6.21
5.17
3.97
2.70
1.51
0.63
0.15
0.03
0.10
0.16
0.13
0.02
-0.09
-0.14
-0.18
-0.28
-0.54
-0.96
-1.51
-2.14
-2.82
-3.59
-4.45
-5.43
-6.49
-7.53
-8.41
-8.94
-8.85
-7.92
-6.07
-3.47
-0.53
2.24
4.40
5.82
6.61
7.09
7.53
8.00
8.38
8.46
8.14
7.47
6.67
5.94
5.38
4.93
4.38
3.57
2.49
1.29
0.22
-0.52
-0.90
-1.08
-1.28
-1.68
-2.32
-3.10
-3.86
-4.50
-5.00
-5.44
-5.91
-6.48
-7.11
-7.69
-8.01
-7.79
-6.77
-4.85
-2.13
1.03
4.11
6.59
8.18
8.83
8.74
8.20
7.47
6.68
5.87
4.98
3.96
2.81
1.54
0.27
-0.87
-1.67
-2.02
-1.87
-1.33
-0.66
-0.13
0.04
-0.26
-0.94
-1.86
-2.79
-3.59
-4.17
-4.51
-4.66
-4.68
-4.68
-4.73
-4.93
-5.28
-5.66
-5.79
-5.33
-4.01
-1.76
1.21
4.46
7.44
9.67
10.90
11.11
10.49
9.37
8.04
6.70
5.42
4.21
3.01
1.79
0.60
-0.49
-1.38
-2.04
-2.51
-2.88
-3.22
-3.52
-3.69
-3.71
-3.58
-3.42
-3.37
-3.54
-3.93
-4.38
-4.69
-4.71
-4.47
-4.08
-3.80
-3.77
-3.95
-4.05
-3.72
-2.62
-0.66
1.99
4.95
7.70
9.84
11.11
11.46
11.05
10.10
8.86
7.54
6.25
5.04
3.88
2.76
1.68
0.69
-0.14
-0.75
-1.10
-1.14
-0.90
-0.42
0.15
0.63
0.79
0.51
-0.22
-1.27
-2.44
-3.53
-4.43
-5.14
-5.78
-6.49
-7.36
-8.44
-9.62
-10.66
-11.17
-10.81
-9.37
-6.91
-3.78
-0.47
2.55
4.93
6.57
7.50
7.86
7.79
7.43
6.94
6.44
6.03
5.74
5.51
5.24
4.84
4.27
3.56
2.82
2.11
1.52
1.08
0.77
0.53
0.29
0.01
-0.34
-0.74
-1.14
-1.53
-1.92
-2.39
-3.03
-3.90
-5.01
-6.27
-7.46
-8.24
-8.28
-7.34
-5.39
-2.65
0.39
3.22
5.43
6.87
7.66
8.06
8.29
8.42
8.33
7.82
6.79
5.29
3.58
1.93
0.58
-0.38
-1.00
-1.43
-1.78
-2.14
-2.56
-3.05
-3.61
-4.25
-4.95
-5.63
-6.19
-6.53
-6.58
-6.37
-6.06
-5.83
-5.87
-6.24
-6.78
-7.15
-6.94
-5.80
-3.67
-0.77
2.44
5.44
7.80
9.33
10.04
10.11
9.77
9.17
8.43
7.64
6.84
6.07
5.36
4.69
4.02
3.33
2.60
1.94
1.41
1.07
0.92
0.85
0.75
0.47
-0.05
-0.83
-1.78
-2.80
-3.74
-4.49
-4.98
-5.22
-5.30
-5.36
-5.55
-5.89
-6.28
-6.47
-6.14
-5.04
-3.16
-0.72
1.81
3.97
5.41
6.06
6.08
5.81
5.51
5.29
5.09
4.80
4.32
3.68
3.02
2.53
2.34
2.48
2.85
3.28
3.55
3.52
3.12
2.37
1.33
0.11
-1.18
-2.42
-3.50
-4.39
-5.08
-5.69
-6.39
-7.26
-8.29
-9.20
-9.58
-9.02
-7.29
-4.51
-1.10
2.37
5.36
7.51
8.74
9.13
8.87
8.15
7.15
6.00
4.82
3.74
2.81
2.01
1.24
0.38
-0.64
-1.82
-3.04
-4.22
-5.31
-6.41
-7.67
-9.22
-11.06
-13.07
-14.99
-16.58
-17.62
-17.96
-17.58
-16.50
-14.83
-12.74
-10.41
-7.98
-5.46
-2.74
0.31
3.71
7.30
10.72
13.58
15.55
16.60
16.90
16.79
16.60
16.50
16.45
16.25
15.66
14.55
12.98
11.14
9.33
7.78
6.57
5.63
4.77
3.78
2.49
0.91
-0.86
-2.61
-4.12
-5.30
-6.21
-7.10
-8.30
-10.07
-12.51
-15.50
-18.72
-21.70
-23.87
-24.73
-23.91
-21.32
-17.16
-11.98
-6.48
-1.34
2.99
6.40
9.02
11.12
12.86
14.30
15.37
16.04
16.40
16.61
16.85
17.19
17.57
17.86
17.96
17.88
17.68
17.36
16.81
15.84
14.32
12.28
9.90
7.43
5.04
2.74
0.43
-1.97
-4.46
-6.94
-9.31
-11.47
-13.27
-14.53
-14.96
-14.31
-12.53
-9.90
-6.97
-4.34
-2.44
-1.36
-0.91
-0.80
-0.83
-0.96
-1.29
-1.90
-2.76
-3.75
-4.72
-5.56
-6.27
-6.88
-7.42
-7.88
-8.21
-8.39
-8.41
-8.32
-8.19
-8.09
-8.07
-8.15
-8.32
-8.53
-8.77
-9.01
-9.19
-9.22
-8.92
-8.05
-6.44
-4.04
-1.06
2.08
4.93
7.12
8.53
9.27
9.57
9.62
9.50
9.21
8.70
7.95
7.11
6.37
5.94
5.91
6.18
6.52
6.65
6.39
5.73
4.84
3.98
3.33
2.95
2.71
2.39
1.80
0.83
-0.51
-2.14
-3.88
-5.48
-6.60
-6.91
-6.12
-4.23
-1.53
1.46
4.16
6.18
7.38
7.86
7.82
7.42
6.75
5.80
4.64
3.38
2.17
1.15
0.34
-0.29
-0.80
-1.22
-1.57
-1.84
-2.03
-2.18
-2.34
-2.55
-2.89
-3.38
-4.04
-4.88
-5.88
-6.97
-8.02
-8.81
-9.05
-8.45
-6.87
-4.43
-1.49
1.41
3.78
5.34
6.14
6.42
6.46
6.43
6.33
6.07
5.61
5.02
4.44
4.01
3.80
3.73
3.64
3.37
2.86
2.15
1.38
0.67
0.11
-0.26
-0.49
-0.65
-0.85
-1.21
-1.84
-2.85
-4.27
-6.06
-8.04
-9.85
-11.08
-11.33
-10.47
-8.67
-6.38
-4.18
-2.52
-1.56
-1.17
-1.01
-0.79
-0.39
0.07
0.38
0.37
0.07
-0.35
-0.61
-0.52
-0.02
0.81
1.80
2.80
3.70
4.48
5.13
5.61
5.88
5.88
5.61
5.10
4.43
3.67
2.87
2.00
0.99
-0.24
-1.76
-3.48
-5.19
-6.53
-7.10
-6.61
-5.02
-2.61
0.18
2.82
4.88
6.19
6.78
6.79
6.46
5.96
5.39
4.81
4.23
3.64
3.05
2.43
1.83
1.26
0.75
0.32
-0.03
-0.27
-0.38
-0.37
-0.31
-0.29
-0.43
-0.84
-1.52
-2.38
-3.24
-3.91
-4.30
-4.47
-4.65
-5.17
-6.24
-7.86
-9.73
-11.23
-11.74
-10.83
-8.48
-5.10
-1.37
2.02
4.60
6.21
6.96
7.08
6.78
6.22
5.48
4.71
4.03
3.61
3.51
3.65
3.88
3.96
3.75
3.26
2.63
2.07
1.77
1.74
1.87
1.92
1.67
1.00
-0.01
-1.15
-2.11
-2.69
-2.84
-2.73
-2.69
-3.00
-3.86
-5.20
-6.80
-8.26
-9.21
-9.33
-8.41
-6.46
-3.63
-0.27
3.15
6.14
8.31
9.48
9.68
9.13
8.11
6.88
5.67
4.63
3.87
3.41
3.18
3.01
2.76
2.33
1.77
1.25
0.93
0.88
1.02
1.20
1.21
1.00
0.62
0.15
-0.31
-0.75
-1.22
-1.75
-2.36
-3.02
-3.75
-4.58
-5.64
-6.92
-8.25
-9.28
-9.55
-8.69
-6.58
-3.47
0.14
3.63
6.44
8.23
8.93
8.66
7.70
6.32
4.81
3.38
2.19
1.34
0.85
0.67
0.69
0.79
0.84
0.77
0.60
0.42
0.35
0.46
0.72
0.99
1.08
0.80
0.11
-0.90
-2.00
-2.92
-3.46
-3.56
-3.41
-3.33
-3.66
-4.59
-6.03
-7.63
-8.85
-9.19
-8.31
-6.29
-3.47
-0.39
2.43
4.68
6.23
7.17
7.59
7.59
7.21
6.45
5.44
4.26
3.10
2.10
1.35
0.90
0.72
0.77
0.95
1.15
1.24
1.20
1.00
0.71
0.41
0.11
-0.18
-0.49
-0.85
-1.25
-1.65
-2.04
-2.48
-3.09
-4.10
-5.57
-7.40
-9.19
-10.35
-10.33
-8.87
-6.14
-2.68
0.85
3.89
6.13
7.51
8.15
8.15
7.59
6.59
5.37
4.16
3.19
2.55
2.17
1.85
1.49
1.05
0.67
0.49
0.56
0.88
1.29
1.66
1.86
1.83
1.56
1.09
0.48
-0.19
-0.84
-1.39
-1.88
-2.41
-3.17
-4.33
-5.94
-7.85
-9.64
-10.76
-10.67
-9.12
-6.22
-2.49
1.35
4.57
6.72
7.69
7.67
6.98
5.92
4.71
3.46
2.25
1.19
0.37
-0.17
-0.44
-0.52
-0.52
-0.48
-0.41
-0.28
-0.11
0.08
0.22
0.25
0.19
0.06
-0.10
-0.31
-0.59
-1.02
-1.62
-2.40
-3.29
-4.24
-5.20
-6.10
-6.87
-7.35
-7.34
-6.62
-5.05
-2.68
0.25
3.27
5.87
7.70
8.61
8.72
8.26
7.44
6.38
5.12
3.69
2.19
0.78
-0.37
-1.18
-1.68
-1.95
-2.09
-2.15
-2.12
-1.97
-1.71
-1.42
-1.22
-1.24
-1.54
-2.12
-2.88
-3.66
-4.32
-4.77
-5.04
-5.27
-5.64
-6.24
-6.99
-7.63
-7.75
-6.97
-5.13
-2.37
0.92
4.18
6.90
8.77
9.71
9.82
9.30
8.30
6.96
5.36
3.64
1.99
0.59
-0.40
-0.96
-1.19
-1.23
-1.22
-1.26
-1.34
-1.43
-1.52
-1.61
-1.72
-1.85
-2.01
-2.17
-2.35
-2.55
-2.80
-3.11
-3.49
-3.95
-4.48
-5.04
-5.52
-5.75
-5.47
-4.48
-2.68
-0.16
2.76
5.64
8.04
9.68
10.41
10.35
9.68
8.65
7.43
6.16
4.87
3.57
2.33
1.22
0.33
-0.22
-0.44
-0.38
-0.17
0.03
0.10
-0.01
-0.30
-0.77
-1.36
-2.10
-2.99
-4.00
-5.03
-5.97
-6.70
-7.22
-7.61
-7.95
-8.26
-8.36
-7.93
-6.61
-4.28
-1.12
2.37
5.55
7.91
9.22
9.57
9.22
8.48
7.57
6.53
5.38
4.12
2.84
1.68
0.77
0.17
-0.15
-0.24
-0.17
0.06
0.44
0.95
1.47
1.86
1.94
1.65
1.02
0.22
-0.59
-1.31
-1.93
-2.53
-3.21
-4.08
-5.20
-6.57
-8.08
-9.43
-10.22
-10.05
-8.68
-6.18
-2.95
0.38
3.17
5.02
5.84
5.87
5.43
4.84
4.32
3.93
3.67
3.51
3.42
3.37
3.35
3.32
3.28
3.20
3.07
2.86
2.56
2.14
1.59
0.92
0.15
-0.71
-1.64
-2.59
-3.52
-4.34
-5.06
-5.68
-6.33
-7.12
-8.09
-9.18
-10.12
-10.54
-10.10
-8.63
-6.19
-3.16
-0.02
2.74
4.84
6.19
6.89
7.03
6.73
6.01
4.94
3.68
2.47
1.54
1.04
0.88
0.89
0.84
0.60
0.26
-0.02
-0.11
-0.01
0.10
-0.00
-0.51
-1.40
-2.50
-3.57
-4.43
-5.00
-5.33
-5.53
-5.72
-5.99
-6.41
-7.02
-7.79
-8.54
-8.95
-8.66
-7.41
-5.18
-2.29
0.79
3.52
5.56
6.81
7.38
7.46
7.22
6.76
6.15
5.47
4.85
4.41
4.26
4.38
4.68
4.99
5.14
5.02
4.59
3.93
3.15
2.38
1.73
1.25
0.92
0.67
0.39
0.01
-0.54
-1.29
-2.26
-3.48
-4.92
-6.46
-7.95
-9.10
-9.58
-9.10
-7.50
-4.84
-1.44
2.15
5.35
7.66
8.86
9.03
8.54
7.84
7.27
6.96
6.80
6.52
5.95
5.08
4.10
3.24
2.66
2.31
2.02
1.59
0.98
0.30
-0.23
-0.48
-0.49
-0.46
-0.61
-1.01
-1.52
-1.91
-1.96
-1.66
-1.27
-1.11
-1.49
-2.45
-3.69
-4.70
-4.95
-4.10
-2.11
0.71
3.85
6.74
8.93
10.24
10.63
10.25
9.22
7.67
5.64
3.26
0.75
-1.60
-3.48
-4.68
-5.22
-5.29
-5.19
-5.17
-5.34
-5.65
-6.02
-6.30
-6.49
-6.61
-6.74
-6.91
-7.11
-7.31
-7.43
-7.49
-7.56
-7.77
-8.33
-9.31
-10.64
-12.00
-12.86
-12.64
-10.99
-7.86
-3.67
0.91
5.15
8.52
10.81
12.11
12.70
12.79
12.56
12.07
11.36
10.53
9.68
8.96
8.36
7.85
7.29
6.66
6.01
5.44
5.09
4.95
4.91
4.73
4.17
3.14
1.68
0.00
-1.68
-3.21
-4.55
-5.78
-6.99
-8.28
-9.68
-11.14
-12.53
-13.61
-14.07
-13.60
-12.08
-9.59
-6.50
-3.31
-0.54
1.49
2.69
3.18
3.16
2.83
2.38
1.93
1.61
1.54
1.78
2.28
2.87
3.35
3.55
3.45
3.15
2.84
2.71
2.79
3.05
3.34
3.51
3.44
3.05
2.33
1.27
-0.06
-1.58
-3.14
-4.57
-5.75
-6.64
-7.33
-7.99
-8.74
-9.56
-10.22
-10.35
-9.58
-7.76
-5.04
-1.86
1.20
3.68
5.37
6.32
6.76
6.84
6.63
6.07
5.13
3.91
2.67
1.77
1.40
1.62
2.21
2.88
3.39
3.69
3.88
4.12
4.47
4.85
5.07
4.97
4.49
3.73
2.89
2.16
1.64
1.30
1.00
0.56
-0.23
-1.47
-3.15
-5.04
-6.70
-7.61
-7.33
-5.73
-3.03
0.23
3.38
5.92
7.56
8.32
8.36
7.91
7.12
6.12
4.97
3.75
2.58
1.53
0.70
0.14
-0.16
-0.21
-0.09
0.13
0.41
0.71
1.02
1.30
1.45
1.39
1.08
0.55
-0.03
-0.52
-0.81
-0.93
-1.10
-1.60
-2.65
-4.29
-6.30
-8.17
-9.30
-9.17
-7.61
-4.86
-1.52
1.69
4.21
5.80
6.54
6.68
6.48
6.04
5.35
4.41
3.32
2.29
1.55
1.22
1.25
1.51
1.86
2.21
2.55
2.89
3.12
3.10
2.69
1.86
0.71
-0.53
-1.60
-2.34
-2.73
-2.84
-2.82
-2.83
-2.99
-3.44
-4.27
-5.49
-6.96
-8.35
-9.23
-9.16
-7.96
-5.73
-2.88
0.03
2.55
4.42
5.64
6.40
6.86
7.11
7.15
6.96
6.61
6.22
5.93
5.84
5.91
6.00
5.93
5.58
4.92
4.06
3.17
2.39
1.75
1.17
0.55
-0.22
-1.14
-2.11
-3.01
-3.79
-4.45
-5.10
-5.82
-6.62
-7.43
-8.19
-8.89
-9.56
-10.21
-10.75
-10.93
-10.42
-8.99
-6.65
-3.66
-0.51
2.33
4.54
6.03
6.87
7.20
7.14
6.72
6.00
5.09
4.15
3.41
2.97
2.84
2.84
2.75
2.39
1.69
0.76
-0.22
-1.00
-1.49
-1.69
-1.73
-1.79
-1.95
-2.20
-2.40
-2.39
-2.09
-1.57
-1.03
-0.72
-0.88
-1.68
-3.16
-5.21
-7.53
-9.62
-10.92
-10.93
-9.43
-6.59
-2.93
0.83
4.05
6.32
7.56
7.88
7.50
6.67
5.61
4.54
3.68
3.21
3.15
3.38
3.70
3.84
3.67
3.16
2.46
1.71
1.06
0.53
0.07
-0.39
-0.97
-1.71
-2.64
-3.71
-4.79
-5.72
-6.30
-6.43
-6.13
-5.59
-5.14
-5.11
-5.72
-6.92
-8.38
-9.58
-9.95
-9.12
-7.03
-3.97
-0.48
2.86
5.57
7.43
8.43
8.75
8.56
8.07
7.43
6.75
6.08
5.44
4.81
4.21
3.67
3.24
2.97
2.83
2.73
2.58
2.30
1.91
1.46
1.04
0.66
0.28
-0.17
-0.73
-1.37
-2.08
-2.78
-3.51
-4.30
-5.16
-6.08
-6.93
-7.51
-7.54
-6.78
-5.11
-2.62
0.35
3.28
5.68
7.21
7.88
7.93
7.73
7.55
7.45
7.27
6.79
5.89
4.64
3.29
2.10
1.22
0.63
0.18
-0.27
-0.77
-1.29
-1.75
-2.14
-2.51
-2.97
-3.59
-4.35
-5.15
-5.83
-6.27
-6.44
-6.39
-6.18
-5.80
-5.19
-4.19
-2.69
-0.71
1.59
3.88
5.83
7.22
7.99
8.28
8.26
8.03
7.60
6.82
5.63
4.08
2.45
1.06
0.22
-0.04
0.07
0.21
0.02
-0.61
-1.55
-2.51
-3.19
-3.41
-3.26
-2.99
-2.93
-3.33
-4.24
-5.54
-6.88
-7.88
-8.16
-7.47
-5.76
-3.17
-0.04
3.17
5.99
8.00
9.02
9.08
8.43
7.39
6.29
5.30
4.42
3.60
2.79
2.04
1.48
1.24
1.31
1.54
1.69
1.55
1.06
0.33
-0.47
-1.18
-1.79
-2.41
-3.15
-4.03
-4.99
-5.96
-6.86
-7.69
-8.44
-8.98
-9.06
-8.42
-6.92
-4.66
-2.03
0.48
2.48
3.78
4.47
4.76
4.87
4.88
4.73
4.33
3.65
2.76
1.88
1.21
0.89
0.94
1.23
1.57
1.78
1.72
1.39
0.84
0.23
-0.36
-0.85
-1.32
-1.84
-2.49
-3.30
-4.22
-5.21
-6.27
-7.39
-8.57
-9.63
-10.28
-10.14
-8.96
-6.70
-3.68
-0.45
2.42
4.51
5.70
6.10
5.96
5.54
5.04
4.58
4.22
3.97
3.78
3.61
3.42
3.20
2.98
2.80
2.68
2.60
2.50
2.34
2.08
1.72
1.25
0.68
-0.01
-0.82
-1.69
-2.51
-3.18
-3.63
-3.93
-4.29
-4.99
-6.21
-7.93
-9.81
-11.31
-11.83
-10.99
-8.82
-5.74
-2.41
0.55
2.75
4.05
4.58
4.55
4.16
3.56
2.89
2.26
1.78
1.55
1.64
2.00
2.53
3.11
3.58
3.86
3.98
4.03
4.16
4.42
4.76
4.97
4.77
3.96
2.50
0.57
-1.49
-3.36
-4.81
-5.80
-6.42
-6.88
-7.37
-8.02
-8.88
-9.88
-10.84
-11.46
-11.44
-10.50
-8.56
-5.79
-2.59
0.49
3.00
4.72
5.70
6.18
6.44
6.61
6.66
6.48
6.03
5.39
4.72
4.21
3.94
3.88
3.90
3.90
3.88
3.86
3.93
4.05
4.13
3.98
3.43
2.46
1.18
-0.16
-1.27
-1.99
-2.31
-2.41
-2.56
-2.99
-3.75
-4.84
-6.09
-7.31
-8.26
-8.63
-8.13
-6.57
-3.98
-0.65
2.85
5.94
8.19
9.44
9.81
9.57
8.94
8.03
6.86
5.48
3.99
2.57
1.38
0.48
-0.19
-0.76
-1.33
-1.90
-2.33
-2.47
-2.20
-1.59
-0.87
-0.35
-0.33
-0.87
-1.83
-2.88
-3.68
-4.03
-3.97
-3.73
-3.62
-3.92
-4.72
-5.95
-7.37
-8.65
-9.44
-9.43
-8.41
-6.35
-3.41
0.03
3.46
6.39
8.45
9.51
9.71
9.29
8.55
7.66
6.71
5.73
4.79
3.97
3.36
2.96
2.69
2.42
2.06
1.67
1.33
1.16
1.10
1.03
0.77
0.27
-0.40
-1.09
-1.66
-2.13
-2.54
-3.01
-3.56
-4.10
-4.56
-4.91
-5.27
-5.78
-6.49
-7.19
-7.52
-7.02
-5.44
-2.84
0.37
3.60
6.25
7.95
8.62
8.40
7.57
6.43
5.23
4.16
3.34
2.82
2.53
2.34
2.08
1.62
0.96
0.23
-0.37
-0.70
-0.74
-0.58
-0.39
-0.32
-0.45
-0.75
-1.15
-1.57
-2.00
-2.44
-2.89
-3.33
-3.75
-4.18
-4.70
-5.41
-6.32
-7.28
-7.92
-7.81
-6.62
-4.30
-1.19
2.16
5.13
7.33
8.67
9.26
9.33
8.98
8.23
7.05
5.51
3.81
2.23
1.04
0.34
0.10
0.10
0.13
0.04
-0.21
-0.51
-0.78
-0.95
-1.03
-1.10
-1.26
-1.56
-1.96
-2.41
-2.80
-3.11
-3.37
-3.63
-3.93
-4.31
-4.77
-5.34
-5.98
-6.52
-6.70
-6.21
-4.85
-2.63
0.11
2.89
5.28
7.00
8.05
8.54
8.59
8.23
7.42
6.21
4.75
3.34
2.19
1.39
0.84
0.33
-0.29
-1.03
-1.72
-2.13
-2.10
-1.65
-0.94
-0.19
0.38
0.59
0.42
-0.08
-0.78
-1.51
-2.16
-2.64
-2.98
-3.26
-3.61
-4.17
-5.01
-6.09
-7.20
-8.01
-8.11
-7.21
-5.23
-2.41
0.78
3.75
6.05
7.46
8.06
8.09
7.86
7.56
7.25
6.87
6.29
5.46
4.41
3.24
2.11
1.17
0.47
0.06
-0.13
-0.12
0.03
0.25
0.44
0.51
0.38
-0.01
-0.63
-1.44
-2.32
-3.20
-3.98
-4.63
-5.19
-5.73
-6.39
-7.24
-8.26
-9.24
-9.81
-9.59
-8.34
-6.09
-3.15
-0.00
2.88
5.18
6.75
7.60
7.79
7.40
6.49
5.19
3.70
2.27
1.12
0.36
-0.05
-0.23
-0.35
-0.53
-0.76
-0.97
-1.04
-0.91
-0.62
-0.30
-0.14
-0.25
-0.61
-1.08
-1.50
-1.76
-1.88
-1.98
-2.16
-2.50
-3.01
-3.65
-4.38
-5.16
-5.85
-6.20
-5.88
-4.67
-2.54
0.23
3.11
5.59
7.25
7.99
7.93
7.36
6.56
5.77
5.08
4.54
4.12
3.77
3.42
3.02
2.56
2.06
1.54
1.04
0.52
-0.04
-0.66
-1.33
-2.03
-2.70
-3.27
-3.72
-4.04
-4.25
-4.34
-4.37
-4.38
-4.44
-4.66
-5.09
-5.72
-6.39
-6.81
-6.65
-5.66
-3.72
-1.01
2.11
5.12
7.57
9.10
9.60
9.17
8.10
6.72
5.35
4.16
3.17
2.28
1.36
0.36
-0.66
-1.58
-2.31
-2.82
-3.23
-3.61
-4.01
-4.39
-4.68
-4.79
-4.69
-4.43
-4.08
-3.77
-3.55
-3.50
-3.69
-4.13
-4.77
-5.43
-5.85
-5.72
-4.77
-2.92
-0.24
2.95
6.18
8.98
10.99
12.04
12.20
11.71
10.82
9.76
8.60
7.34
5.99
4.65
3.48
2.66
2.27
2.17
2.08
1.66
0.72
-0.75
-2.43
-3.92
-4.85
-5.07
-4.71
-4.13
-3.74
-3.83
-4.51
-5.68
-7.15
-8.72
-10.26
-11.60
-12.54
-12.80
-12.10
-10.30
-7.51
-4.15
-0.79
2.03
3.98
5.05
5.44
5.47
5.35
5.17
4.84
4.25
3.34
2.18
0.95
-0.14
-0.90
-1.24
-1.18
-0.86
-0.41
-0.01
0.26
0.32
0.18
-0.16
-0.68
-1.37
-2.22
-3.19
-4.26
-5.37
-6.49
-7.57
-8.50
-9.13
-9.23
-8.55
-6.96
-4.51
-1.45
1.76
4.61
6.66
7.65
7.53
6.45
4.74
2.82
1.12
-0.00
-0.37
-0.03
0.74
1.58
2.08
2.02
1.38
0.36
-0.73
-1.57
-1.89
-1.57
-0.70
0.43
1.36
1.63
0.91
-0.83
-3.29
-6.00
-8.42
-10.16
-11.07
-11.17
-10.61
-9.52
-8.04
-6.21
-4.05
-1.58
1.18
4.13
7.04
9.61
11.45
12.25
11.88
10.46
8.37
6.09
4.08
2.60
1.71
1.30
1.11
0.92
0.63
0.26
-0.06
-0.16
0.06
0.57
1.24
1.84
2.14
2.00
1.36
0.33
-0.87
-1.94
-2.55
-2.40
-1.35
0.60
3.20
6.05
8.67
10.65
11.73
11.85
11.18
9.95
8.41
6.77
5.15
3.60
2.13
0.76
-0.47
-1.51
-2.35
-2.99
-3.46
-3.80
-4.03
-4.18
-4.27
-4.36
-4.51
-4.85
-5.42
-6.21
-7.13
-8.04
-8.75
-9.09
-8.95
-8.23
-6.91
-5.07
-2.89
-0.63
1.49
3.30
4.71
5.72
6.28
6.25
5.57
4.25
2.56
0.92
-0.19
-0.51
-0.03
0.93
1.96
2.72
3.07
3.08
2.92
2.71
2.51
2.33
2.17
2.05
2.01
1.99
1.96
1.87
1.79
1.91
2.49
3.75
5.75
8.39
11.42
14.47
17.15
19.17
20.25
20.37
19.65
18.46
17.34
16.89
17.61
19.66
22.60
25.34
26.26
23.63
16.20
3.85
-12.24
-29.75
-45.89
-58.24
-65.35
-66.97
-63.93
-57.68
-49.83
-41.75
-34.34
-28.03
-22.82
-18.50
-14.84
-11.74
-9.25
-7.33
-5.92
-4.77
-3.68
-2.60
-1.71
-1.33
-1.72
-2.83
-4.30
-5.64
-6.40
-6.38
-5.70
-4.71
-3.78
-3.13
-2.69
-2.20
-1.26
0.40
2.73
5.37
7.76
9.32
9.70
8.84
7.00
4.63
2.28
0.48
-0.31
0.17
1.91
4.60
7.71
10.65
12.96
14.45
15.17
15.31
15.07
14.56
13.81
12.88
11.89
10.99
10.30
9.83
9.45
8.94
8.05
6.70
4.96
3.06
1.26
-0.24
-1.38
-2.23
-2.90
-3.58
-4.42
-5.56
-7.03
-8.71
-10.31
-11.35
-11.33
-9.93
-7.18
-3.49
0.48
4.02
6.69
8.35
9.16
9.43
9.43
9.33
9.14
8.88
8.52
8.08
7.58
7.03
6.47
5.91
5.39
4.95
4.62
4.41
4.27
4.15
3.96
3.61
2.99
2.06
0.80
-0.72
-2.39
-4.04
-5.57
-6.92
-8.16
-9.43
-10.87
-12.52
-14.18
-15.48
-15.93
-15.16
-13.09
-10.00
-6.42
-2.96
-0.04
2.19
3.88
5.26
6.52
7.67
8.59
9.07
9.02
8.54
7.83
7.17
6.74
6.62
6.75
6.93
7.04
6.99
6.80
6.63
6.60
6.75
7.00
7.10
6.78
5.85
4.33
2.44
0.50
-1.18
-2.45
-3.36
-4.05
-4.67
-5.40
-6.31
-7.49
-8.98
-10.74
-12.55
-14.01
-14.61
-13.92
-11.78
-8.38
-4.25
-0.10
3.45
6.03
7.60
8.37
8.71
8.91
9.15
9.40
9.56
9.47
9.08
8.43
7.66
6.94
6.42
6.14
6.05
6.04
6.01
5.86
5.60
5.23
4.80
4.32
3.79
3.18
2.41
1.49
0.44
-0.61
-1.53
-2.20
-2.61
-2.87
-3.18
-3.73
-4.69
-6.13
-7.95
-9.94
-11.74
-12.92
-13.07
-11.92
-9.46
-6.03
-2.21
1.33
4.07
5.80
6.63
6.90
6.97
7.07
7.24
7.36
7.31
7.04
6.59
6.12
5.74
5.50
5.36
5.24
5.13
5.06
5.09
5.28
5.58
5.86
5.94
5.68
5.03
4.00
2.74
1.41
0.18
-0.81
-1.55
-2.08
-2.55
-3.12
-3.93
-5.04
-6.43
-8.00
-9.62
-11.07
-12.05
-12.19
-11.19
-8.90
-5.52
-1.52
2.45
5.87
8.44
10.14
11.16
11.68
11.78
11.45
10.67
9.51
8.21
7.05
6.25
5.82
5.58
5.26
4.59
3.54
2.22
0.94
-0.01
-0.50
-0.55
-0.40
-0.33
-0.56
-1.10
-1.80
-2.43
-2.75
-2.72
-2.41
-2.05
-1.81
-1.85
-2.24
-3.00
-4.17
-5.65
-7.31
-8.80
-9.71
-9.63
-8.34
-5.91
-2.70
0.73
3.83
6.18
7.65
8.31
8.34
7.93
7.17
6.19
5.12
4.19
3.66
3.66
4.14
4.83
5.34
5.38
4.83
3.86
2.77
1.88
1.35
1.15
1.12
1.02
0.69
0.11
-0.55
-1.11
-1.42
-1.48
-1.51
-1.78
-2.54
-3.88
-5.66
-7.61
-9.34
-10.43
-10.56
-9.51
-7.30
-4.22
-0.72
2.61
5.30
7.04
7.82
7.77
7.12
6.10
4.89
3.64
2.50
1.56
0.87
0.38
0.03
-0.26
-0.50
-0.69
-0.78
-0.77
-0.69
-0.66
-0.76
-1.03
-1.40
-1.77
-2.00
-2.07
-2.00
-1.90
-1.87
-1.94
-2.15
-2.54
-3.24
-4.35
-5.81
-7.35
-8.44
-8.60
-7.52
-5.31
-2.46
0.39
2.71
4.27
5.10
5.46
5.50
5.32
4.90
4.17
3.17
2.03
0.92
0.03
-0.56
-0.87
-1.00
-1.07
-1.14
-1.16
-1.04
-0.67
-0.04
0.72
1.39
1.74
1.60
0.97
0.02
-1.03
-1.98
-2.83
-3.68
-4.71
-6.00
-7.43
-8.68
-9.30
-8.90
-7.34
-4.78
-1.64
1.53
4.24
6.20
7.32
7.69
7.46
6.80
5.84
4.68
3.45
2.24
1.18
0.34
-0.27
-0.68
-1.00
-1.23
-1.43
-1.56
-1.61
-1.56
-1.43
-1.30
-1.27
-1.41
-1.71
-2.10
-2.44
-2.64
-2.72
-2.81
-3.14
-3.87
-5.00
-6.29
-7.32
-7.65
-6.94
-5.13
-2.45
0.66
3.69
6.16
7.80
8.56
8.51
7.80
6.62
5.13
3.51
1.98
0.72
-0.18
-0.72
-0.98
-1.08
-1.06
-0.90
-0.57
-0.11
0.36
0.62
0.55
0.14
-0.53
-1.30
-2.05
-2.74
-3.41
-4.08
-4.78
-5.47
-6.16
-6.84
-7.45
-7.85
-7.82
-7.06
-5.41
-2.91
0.16
3.32
6.11
8.15
9.29
9.57
9.16
8.26
7.08
5.82
4.60
3.53
2.64
1.90
1.25
0.64
0.03
-0.60
-1.18
-1.71
-2.12
-2.38
-2.49
-2.45
-2.36
-2.30
-2.35
-2.55
-2.86
-3.23
-3.65
-4.15
-4.79
-5.61
-6.55
-7.46
-8.03
-7.91
-6.85
-4.81
-2.02
1.03
3.82
5.91
7.11
7.45
7.14
6.41
5.43
4.29
3.10
1.92
0.87
0.03
-0.57
-0.94
-1.16
-1.25
-1.24
-1.12
-0.87
-0.53
-0.14
0.22
0.52
0.72
0.78
0.69
0.43
-0.04
-0.73
-1.63
-2.68
-3.77
-4.79
-5.56
-5.92
-5.68
-4.74
-3.03
-0.71
1.95
4.50
6.50
7.65
7.88
7.33
6.29
5.04
3.79
2.59
1.47
0.40
-0.57
-1.39
-1.98
-2.30
-2.33
-2.13
-1.78
-1.40
-1.13
-1.02
-1.03
-1.12
-1.22
-1.34
-1.58
-2.03
-2.74
-3.66
-4.68
-5.75
-6.85
-7.92
-8.84
-9.33
-9.05
-7.73
-5.41
-2.43
0.69
3.46
5.56
6.99
7.89
8.39
8.53
8.24
7.49
6.37
5.11
3.95
3.05
2.38
1.83
1.25
0.58
-0.09
-0.63
-0.93
-0.98
-0.92
-0.89
-1.06
-1.53
-2.31
-3.33
-4.47
-5.59
-6.55
-7.28
-7.74
-7.98
-8.06
-7.98
-7.69
-7.04
-5.84
-3.95
-1.41
1.56
4.55
7.06
8.73
9.41
9.23
8.49
7.53
6.60
5.79
5.06
4.35
3.62
2.92
2.29
1.86
1.65
1.72
2.03
2.52
3.07
3.50
3.66
3.46
2.96
2.36
1.91
1.83
2.16
2.74
3.32
3.60
3.50
3.16
2.98
3.45
4.97
7.65
11.30
15.50
19.77
23.78
27.42
30.72
33.74
36.50
38.90
40.80
42.11
42.72
42.63
41.91
40.96
40.58
41.97
46.31
53.98
64.06
74.24
81.44
82.83
76.77
63.05
42.53
16.52
-13.84
-47.54
-83.49
-120.10
-155.34
-186.99
-213.02
-231.82
-242.12
-242.91
-233.42
-213.42
-183.48
-145.13
-100.60
-52.49
-3.56
43.36
85.36
119.63
144.01
157.65
161.52
158.21
151.22
143.73
137.74
133.87
131.87
131.39
132.50
135.31
139.23
142.17
140.58
130.36
108.38
73.62
27.42
-27.54
-88.57
-153.63
-220.78
-286.72
-345.77
-390.38
-413.26
-410.27
-382.35
-335.08
-276.36
-213.09
-149.14
-85.58
-22.67
37.79
91.66
133.60
159.60
169.08
165.35
154.10
140.89
129.14
119.46
110.57
100.94
90.05
78.73
68.47
60.47
54.91
50.94
47.26
42.81
37.23
30.99
24.98
20.04
16.55
14.25
12.52
10.63
8.22
5.47
3.00
1.56
1.63
3.18
5.67
8.31
10.31
11.24
11.04
10.00
8.49
6.86
5.31
3.93
2.74
1.74
0.92
0.20
-0.47
-1.17
-1.88
-2.57
-3.16
-3.56
-3.74
-3.71
-3.54
-3.34
-3.30
-3.56
-4.24
-5.23
-6.22
-6.76
-6.39
-4.89
-2.36
0.71
3.68
5.96
7.24
7.53
7.08
6.25
5.29
4.27
3.16
1.94
0.66
-0.47
-1.26
-1.62
-1.62
-1.48
-1.44
-1.56
-1.77
-1.87
-1.69
-1.22
-0.61
-0.10
0.04
-0.31
-1.19
-2.51
-4.08
-5.60
-6.66
-6.89
-6.02
-4.07
-1.38
1.52
4.11
6.06
7.33
8.08
8.48
8.65
8.51
7.95
6.95
5.61
4.19
2.96
2.11
1.66
1.48
1.36
1.17
0.82
0.40
0.05
-0.14
-0.10
0.13
0.42
0.64
0.69
0.49
-0.04
-0.97
-2.38
-4.22
-6.26
-8.01
-8.84
-8.20
-5.88
-2.14
2.34
6.69
10.18
12.44
13.57
13.95
14.02
14.08
14.19
14.26
14.14
13.80
13.37
13.07
13.14
13.72
14.77
16.09
17.40
18.42
19.04
19.39
19.78
20.60
22.08
24.09
26.17
27.72
28.38
28.24
27.78
27.45
27.20
26.38
24.41
21.69
20.18
22.80
31.59
45.87
61.23
70.50
66.40
44.26
3.49
-53.05
-120.68
-194.46
-269.28
-339.28
-397.47
-436.90
-452.99
-445.69
-419.95
-383.66
-344.55
-307.35
-273.37
-241.79
-211.84
-183.92
-159.34
-138.62
-120.21
-100.56
-75.28
-40.79
4.61
60.40
123.49
188.38
247.46
292.52
317.26
320.25
306.26
284.97
266.92
258.69
259.90
263.91
261.90
247.89
222.02
189.95
159.35
135.75
120.24
110.14
101.69
92.77
83.85
77.17
74.52
75.57
77.83
77.95
73.74
65.48
55.80
48.27
45.69
48.77
55.98
64.45
71.17
74.27
73.52
70.20
66.33
63.76
63.29
64.17
64.26
60.58
50.64
33.72
11.84
-10.23
-25.97
-29.10
-15.75
14.00
55.99
103.41
149.10
187.87
217.75
239.54
255.20
265.92
271.07
268.51
255.93
232.34
198.75
157.76
112.29
64.41
15.02
-35.52
-86.70
-137.16
-184.97
-228.47
-267.10
-301.99
-335.91
-372.57
-415.35
-465.60
-521.25
-576.14
-621.29
-647.44
-648.46
-623.61
-577.74
-519.18
-456.49
-395.66
-339.21
-287.09
-238.41
-192.70
-149.98
-110.02
-71.59
-32.64
8.78
53.52
100.82
148.73
195.03
238.40
279.10
319.03
361.40
409.58
465.60
528.34
592.60
649.51
688.92
702.85
688.42
649.09
593.13
530.40
468.85
412.59
362.14
316.26
274.04
235.86
203.05
176.72
156.80
141.78
129.42
117.62
105.10
91.73
78.18
65.34
53.73
43.14
32.52
20.23
4.51
-16.01
-41.87
-72.65
-107.10
-143.77
-181.33
-219.15
-257.38
-296.67
-338.03
-382.75
-432.48
-488.78
-551.88
-619.49
-685.92
-742.88
-781.26
-794.72
-782.29
-749.03
-703.79
-655.29
-609.19
-567.01
-527.44
-488.32
-448.83
-410.14
-374.44
-343.29
-315.83
-289.44
-260.98
-228.70
-191.99
-152.24
-111.96
-74.13
-40.84
-11.00
18.23
50.16
86.09
128.26
178.36
236.76
300.72
363.96
419.78
459.33
473.32
453.09
400.69
327.50
251.07
187.68
147.75
137.84
156.55
195.70
239.96
281.27
316.94
348.64
376.56
399.05
418.99
439.76
462.93
482.17
497.05
508.63
519.93
529.85
498.08
401.69
249.10
108.88
1.51
-68.83
-114.49
-137.59
-142.13
-134.68
-119.05
-94.89
-62.05
-27.13
9.81
51.60
106.09
175.23
253.63
331.23
399.68
450.93
475.22
472.65
425.97
337.87
226.33
136.68
75.64
37.33
7.64
-23.71
-60.58
-102.84
-143.15
-174.88
-193.78
-200.60
-194.56
-178.00
-157.97
-142.31
-136.74
-139.63
-147.33
-156.72
-168.76
-182.27
-196.05
-209.37
-221.71
-232.82
-241.22
-247.71
-255.12
-268.27
-287.94
-311.58
-334.72
-353.37
-365.40
-370.14
-369.28
-365.49
-361.19
-355.20
-343.46
-320.97
-284.17
-232.71
-169.89
-103.21
-43.34
-1.90
12.90
-0.37
-34.68
-76.02
-108.06
-118.52
-103.89
-70.14
-28.96
8.24
35.18
51.72
61.45
67.71
71.14
70.08
62.72
49.49
33.56
19.47
10.64
7.89
9.67
13.33
16.99
20.30
24.02
29.00
35.41
42.41
48.78
53.57
56.51
57.91
58.29
58.01
57.32
56.65
56.75
58.53
62.63
68.93
76.61
84.43
91.39
97.04
101.60
105.45
108.72
111.08
111.96
111.16
109.34
108.14
109.59
115.09
124.57
136.41
148.13
157.56
163.96
168.17
172.07
177.45
185.23
194.72
203.77
209.13
206.85
193.03
164.77
121.57
66.09
3.97
-57.48
-111.29
-152.68
-179.37
-191.04
-188.06
-170.51
-138.22
-91.76
-33.49
32.03
98.90
161.38
215.26
258.01
288.06
303.98
304.24
288.18
257.26
215.46
168.45
121.88
79.31
41.47
7.17
-24.90
-54.76
-80.79
-100.91
-114.42
-122.93
-130.37
-141.83
-162.31
-195.28
-241.34
-297.40
-356.76
-410.40
-449.75
-469.66
-470.11
-455.80
-433.54
-409.00
-384.52
-359.28
-331.35
-300.18
-267.85
-238.26
-214.93
-198.73
-187.30
-175.92
-159.37
-133.58
-96.48
-48.82
5.56
59.41
102.86
125.96
122.52
93.61
48.58
2.23
-30.97
-42.53
-32.89
-9.84
16.44
38.68
55.09
68.41
82.55
99.39
118.14
136.91
155.14
174.27
196.27
221.21
246.30
267.43
282.23
292.24
302.14
316.38
335.43
354.38
365.24
361.51
341.86
310.60
274.67
239.46
206.42
173.61
138.88
102.50
67.76
39.07
19.53
9.65
8.04
13.19
24.61
42.22
64.85
88.94
109.29
121.37
124.09
120.76
117.50
119.87
130.02
145.95
163.21
177.72
187.46
192.11
191.35
183.84
167.89
143.11
111.75
78.33
47.78
23.25
5.39
-7.33
-17.30
-26.84
-38.13
-53.51
-75.49
-106.15
-146.35
-195.18
-249.83
-305.76
-356.85
-395.99
-416.22
-413.06
-386.97
-344.41
-296.05
-252.86
-221.26
-200.57
-183.76
-161.28
-125.58
-74.42
-11.44
55.38
116.54
163.59
190.52
194.03
173.35
129.96
67.77
-6.62
-84.45
-155.64
-210.19
-240.87
-245.77
-229.45
-201.46
-172.52
-149.94
-135.62
-125.92
-113.98
-94.36
-67.05
-38.29
-17.42
-11.80
-22.32
-43.64
-66.07
-78.59
-73.65
-50.39
-15.27
21.29
49.47
63.96
63.57
50.44
29.81
10.07
-0.89
0.12
9.69
16.43
15.61
5.32
-16.02
-46.43
-81.81
-115.60
-141.09
-152.88
-148.69
-130.14
-98.81
-63.79
-35.01
-18.78
-11.22
-6.85
-1.09
9.82
29.28
58.23
93.65
129.88
158.93
172.45
163.96
132.57
84.69
32.36
-11.67
-38.39
-43.67
-28.58
2.34
43.13
89.33
138.70
189.73
238.94
279.30
302.00
299.04
266.38
205.75
124.94
35.67
-49.44
-119.83
-168.48
-191.79
-189.54
-164.98
-125.17
-80.17
-41.18
-17.85
-15.56
-33.86
-66.57
-103.90
-135.55
-154.14
-157.04
-146.60
-128.53
-109.44
-94.37
-85.40
-81.71
-80.76
-79.66
-76.26
-69.29
-58.37
-43.86
-26.87
-9.06
7.99
23.81
39.90
59.67
87.04
124.22
169.74
217.80
259.75
286.88
293.33
277.61
242.32
192.52
133.89
71.82
11.48
-41.86
-83.01
-107.91
-115.18
-107.09
-89.09
-67.93
-49.16
-35.32
-25.81
-18.26
-10.64
-2.59
4.64
9.48
11.42
11.69
12.45
15.42
20.91
28.03
35.92
45.10
57.74
76.66
103.66
138.11
176.55
213.49
243.17
261.18
265.53
256.86
237.79
211.64
181.38
148.74
114.15
77.26
37.65
-4.91
-50.73
-100.63
-155.62
-215.53
-277.26
-333.92
-376.04
-394.88
-386.11
-352.10
-301.25
-244.85
-193.16
-152.40
-124.11
-106.44
-96.15
-90.00
-84.99
-77.93
-65.28
-43.91
-12.33
28.07
73.01
116.30
151.80
175.24
185.17
182.87
171.41
154.64
136.13
118.83
104.69
94.58
88.18
84.06
80.20
74.82
67.11
57.45
47.21
38.02
31.55
29.15
32.03
40.99
55.88
75.07
95.35
112.66
123.60
127.03
124.47
119.12
113.83
109.08
102.44
89.86
67.42
33.05
-12.69
-67.05
-125.95
-184.62
-237.81
-279.89
-305.16
-309.92
-293.81
-260.43
-216.32
-168.74
-123.45
-83.32
-48.74
-18.62
7.25
28.20
44.04
56.60
69.95
88.61
114.67
145.64
175.24
194.74
197.33
181.42
151.38
115.29
81.26
54.39
31.26
10.02
-9.89
-27.17
-39.80
-46.29
-46.43
-41.42
-33.58
-25.66
-19.27
-15.82
-15.56
-17.55
-20.14
-21.77
-21.78
-20.60
-19.70
-20.36
-24.25
-32.74
-46.52
-65.78
-90.34
-119.01
-148.85
-175.09
-188.83
-185.88
-166.96
-137.56
-105.97
-79.98
-63.80
-57.03
-56.05
-56.51
-56.20
-54.95
-53.92
-53.51
-53.11
-51.48
-47.72
-42.17
-36.27
-32.20
-31.69
-35.16
-41.70
-49.64
-57.37
-63.98
-69.67
-75.49
-82.64
-91.74
-102.39
-113.23
-122.45
-128.36
-129.87
-126.37
-120.07
-112.31
-103.80
-94.39
-83.31
-69.58
-52.54
-32.25
-9.42
14.71
39.23
63.61
87.92
112.80
139.22
168.13
199.97
234.22
269.12
302.10
329.95
349.80
359.94
360.48
353.30
341.44
328.14
315.81
305.70
297.55
289.91
280.60
267.17
247.37
219.65
183.57
140.10
91.63
41.42
-7.14
-51.41
-90.04
-123.27
-152.70
-180.86
-210.71
-244.99
-285.27
-331.06
-379.10
-423.53
-457.25
-474.07
-470.97
-449.27
-414.25
-373.14
-332.75
-297.49
-268.78
-245.71
-226.39
-209.06
-192.69
-176.82
-161.15
-145.33
-128.87
-111.24
-92.06
-71.13
-48.39
-24.09
1.32
27.16
52.57
76.87
99.85
122.04
144.70
169.63
198.50
232.09
269.65
308.82
346.04
377.49
400.09
411.89
412.32
401.65
380.65
350.41
312.37
268.10
219.08
166.46
111.42
56.14
4.72
-36.71
-61.40
-64.58
-46.12
-11.70
28.93
65.61
91.84
106.89
115.00
122.17
132.32
144.99
155.82
158.95
150.02
128.06
95.12
54.40
8.03
-44.01
-102.25
-165.34
-227.89
-280.59
-313.03
-317.86
-293.87
-246.63
-186.14
-123.05
-65.32
-16.75
22.22
52.61
75.07
88.85
92.01
82.51
59.57
24.53
-19.14
-66.76
-113.83
-157.43
-196.14
-229.19
-255.27
-272.00
-276.71
-268.19
-247.80
-219.46
-187.80
-156.30
-126.10
-96.35
-65.62
-33.28
0.03
33.09
65.17
96.44
127.71
159.66
192.05
223.61
252.50
276.72
294.37
303.58
302.41
289.09
262.88
225.26
180.51
135.50
97.88
73.83
65.98
72.87
89.85
111.07
131.48
147.75
158.28
162.26
158.88
147.24
127.05
99.51
67.74
36.17
9.23
-10.22
-21.72
-26.95
-28.67
-29.51
-30.95
-33.42
-36.84
-41.37
-47.98
-58.25
-73.61
-94.40
-119.38
-145.56
-168.91
-184.95
-189.54
-179.62
-153.90
-113.57
-62.66
-7.89
42.61
81.23
102.82
106.09
93.71
71.22
45.33
22.13
5.99
-0.86
1.75
12.33
28.25
46.46
64.14
79.34
91.19
99.94
106.66
112.61
119.03
126.79
136.42
148.22
162.40
179.03
197.76
217.42
235.63
249.06
254.32
249.04
232.94
207.99
177.59
145.33
113.81
84.31
57.28
33.14
12.89
-2.17
-11.19
-14.68
-14.88
-15.12
-18.77
-27.97
-43.02
-62.70
-85.08
-108.62
-133.03
-159.19
-188.79
-223.74
-265.64
-315.35
-372.37
-434.00
-494.83
-547.17
-582.73
-595.15
-582.30
-547.18
-496.68
-438.84
-379.91
-322.77
-267.25
-212.01
-156.63
-102.67
-53.25
-11.48
21.06
45.03
62.83
77.26
90.26
102.15
112.15
119.34
123.49
124.92
123.54
117.61
103.35
76.08
32.81
-25.34
-92.28
-158.56
-214.94
-255.71
-279.97
-290.44
-290.91
-284.27
-272.24
-256.47
-239.54
-224.63
-213.94
-207.04
-200.67
-190.47
-173.57
-150.32
-124.12
-99.25
-78.60
-62.43
-48.95
-35.91
-21.95
-6.86
8.93
25.21
42.41
61.41
83.34
109.38
140.78
178.55
222.55
270.11
315.40
349.93
364.89
354.12
316.57
256.51
181.84
101.42
23.06
-46.88
-102.47
-137.81
-148.05
-131.99
-94.46
-46.09
0.05
33.76
51.77
58.28
61.76
70.19
87.27
111.89
140.16
168.31
194.35
217.95
239.33
258.64
276.29
293.72
313.61
338.60
369.14
402.01
430.87
448.44
449.42
432.49
400.24
357.53
309.13
258.00
205.00
149.85
92.66
35.23
-18.58
-63.41
-93.84
-106.28
-100.64
-80.85
-53.96
-28.02
-9.43
-1.27
-3.05
-12.10
-25.52
-41.67
-60.38
-82.02
-106.32
-131.62
-155.20
-174.16
-186.52
-191.90
-191.33
-186.64
-179.77
-172.11
-164.36
-156.57
-148.72
-141.23
-135.03
-131.25
-130.45
-131.98
-133.93
-133.75
-129.43
-120.42
-107.62
-92.56
-75.99
-56.99
-33.18
-2.01
37.49
83.47
131.06
173.49
203.85
216.93
210.46
185.49
145.97
97.70
47.01
-0.34
-39.97
-69.22
-87.05
-93.82
-91.12
-81.61
-68.69
-55.77
-45.13
-37.06
-30.01
-21.29
-8.58
9.04
30.61
53.85
76.13
95.73
112.33
126.46
138.77
149.27
157.04
160.40
157.56
147.54
131.34
112.28
94.78
83.12
80.15
86.33
99.14
113.58
123.23
122.95
110.65
86.59
53.19
14.13
-26.68
-66.58
-105.03
-143.85
-185.12
-229.71
-278.37
-330.41
-382.54
-428.23
-459.88
-471.46
-461.52
-432.18
-387.69
-334.95
-280.51
-227.93
-175.95
-120.65
-53.59
23.67
97.96
161.91
209.63
236.62
237.82
215.48
179.53
142.35
110.92
85.89
64.79
44.29
23.25
0.95
-22.12
-46.25
-72.29
-100.64
-128.34
-149.24
-155.32
-142.86
-114.06
-75.68
-36.91
-5.61
14.99
28.61
44.30
70.91
112.15
164.35
217.76
259.75
279.98
274.79
249.05
213.82
180.42
154.62
135.04
115.24
87.78
48.13
-3.67
-63.45
-125.05
-182.15
-228.95
-259.78
-269.62
-255.85
-220.44
-170.27
-115.22
-64.51
-23.21
9.29
38.25
70.56
111.08
159.90
211.78
257.59
287.19
292.43
269.59
220.63
152.88
77.49
7.11
-46.86
-76.70
-80.00
-60.01
-24.64
15.67
50.79
73.38
80.28
72.53
54.20
30.52
6.49
-14.29
-30.04
-40.67
-47.05
-50.10
-49.97
-46.06
-37.77
-25.51
-11.68
-0.66
2.05
-8.47
-34.49
-74.28
-122.12
-169.87
-209.72
-236.62
-249.71
-251.84
-247.77
-241.92
-236.61
-231.53
-224.24
-211.50
-190.60
-160.19
-120.65
-74.22
-25.04
21.05
57.23
76.98
75.69
52.16
9.53
-45.03
-101.58
-149.87
-182.27
-195.98
-193.64
-182.02
-168.94
-159.95
-156.28
-154.90
-150.78
-139.75
-120.78
-96.12
-69.80
-45.09
-22.97
-2.11
19.84
44.31
70.89
97.56
122.27
144.17
164.40
185.62
210.66
241.46
278.59
321.81
370.77
425.04
483.26
541.92
594.92
634.57
653.99
649.60
622.56
578.24
524.22
467.78
414.19
366.30
325.04
290.06
260.09
232.96
205.55
174.28
136.27
90.98
41.64
-4.76
-38.80
-52.08
-40.91
-8.69
34.55
75.37
101.68
106.86
91.55
62.55
29.59
1.63
-15.65
-20.54
-14.60
-1.36
14.79
29.28
37.83
37.03
24.93
1.67
-30.39
-67.43
-105.46
-141.80
-175.97
-209.51
-244.94
-284.20
-328.15
-376.13
-425.93
-473.67
-514.06
-541.66
-553.08
-549.09
-535.04
-518.83
-506.89
-500.42
-494.25
-479.47
-448.57
-399.87
-338.65
-274.13
-214.19
-161.09
-110.81
-56.63
5.80
74.39
140.55
192.67
221.80
225.93
210.93
187.67
167.49
158.95
165.93
188.39
223.53
266.89
312.75
354.66
386.51
404.00
406.05
394.85
374.75
350.30
324.99
300.71
278.18
257.53
238.28
219.16
198.07
172.72
141.76
105.48
65.78
25.31
-13.64
-50.16
-84.69
-118.41
-152.33
-186.81
-221.81
-257.28
-293.62
-330.99
-368.52
-403.22
-429.90
-442.15
-434.26
-402.79
-347.46
-271.20
-179.88
-81.89
12.59
93.04
150.96
182.21
188.50
176.57
155.25
131.89
109.67
86.99
59.47
23.11
-22.53
-72.65
-117.65
-145.59
-146.09
-114.51
-54.67
21.16
95.46
151.33
177.99
173.98
146.46
107.36
68.35
37.05
15.81
2.76
-5.92
-14.05
-24.39
-38.33
-56.14
-77.33
-100.60
-124.02
-145.28
-162.11
-172.64
-175.99
-172.63
-164.46
-154.39
-145.67
-140.70
-140.10
-142.39
-144.45
-142.94
-135.73
-122.93
-106.93
-91.38
-79.63
-73.34
-71.90
-72.73
-72.32
-67.69
-57.50
-42.66
-26.02
-11.27
-1.48
2.17
0.87
-2.46
-4.55
-3.31
1.32
7.63
13.26
16.57
17.40
16.81
16.28
16.76
18.17
19.71
20.42
19.86
18.36
16.74
15.93
16.34
17.74
19.28
20.03
19.38
17.39
14.71
12.27
10.80
10.52
11.05
11.67
11.72
10.90
9.44
7.84
6.61
5.96
5.73
5.48
4.82
3.60
1.95
0.25
-1.11
-1.81
-1.58
-0.29
2.12
5.47
9.33
13.06
16.02
17.85
18.63
18.83
19.01
19.54
20.38
21.11
21.25
20.47
18.83
16.72
14.67
13.03
11.84
10.86
9.80
8.52
7.20
6.23
6.00
6.61
7.79
9.00
9.64
9.32
8.01
6.08
4.12
2.79
2.54
3.49
5.36
7.54
9.37
10.31
10.18
9.17
7.76
6.38
5.34
4.69
4.33
4.13
4.07
4.11
4.23
4.27
4.03
3.31
2.09
0.60
-0.78
-1.67
-1.86
-1.44
-0.76
-0.19
-0.02
-0.29
-0.89
-1.66
-2.47
-3.25
-3.90
-4.23
-3.95
-2.84
-0.90
1.58
4.02
5.85
6.68
6.57
5.99
5.57
5.89
7.08
8.87
10.65
11.81
11.97
11.17
9.80
8.36
7.15
6.17
5.16
3.87
2.22
0.39
-1.22
-2.28
-2.67
-2.55
-2.29
-2.26
-2.64
-3.47
-4.58
-5.74
-6.71
-7.26
-7.22
-6.48
-4.98
-2.81
-0.22
2.37
4.51
5.86
6.37
6.35
6.32
6.74
7.78
9.17
10.35
10.73
10.03
8.42
6.39
4.37
2.60
0.92
-0.90
-3.01
-5.24
-7.24
-8.68
-9.50
-9.98
-10.59
-11.71
-13.45
-15.68
-18.18
-20.89
-23.90
-27.35
-31.26
-35.39
-39.32
-42.67
-45.32
-47.49
-49.60
-52.05
-55.07
-58.70
-62.88
-67.68
-73.24
-79.56
-86.10
-91.54
-93.94
-91.21
-82.03
-66.40
-45.72
-22.31
1.39
23.50
42.91
59.06
71.69
80.68
86.19
88.87
89.86
90.46
91.58
93.37
95.19
96.10
95.34
92.76
88.71
83.77
78.33
72.43
65.84
58.20
49.25
38.91
27.33
14.86
2.11
-10.08
-20.74
-28.96
-34.16
-36.16
-35.26
-32.06
-27.23
-21.35
-14.81
-7.79
-0.35
7.49
15.64
23.88
31.77
38.81
44.49
48.39
50.25
49.97
47.66
43.68
38.61
33.25
28.41
24.67
22.21
20.77
19.85
18.94
17.77
16.31
14.71
13.15
11.68
10.27
8.85
7.43
6.05
4.77
3.57
2.34
1.00
-0.50
-2.14
-3.84
-5.48
-6.96
-8.14
-8.91
-9.11
-8.68
-7.71
-6.34
-4.87
-3.56
-2.65
-2.29
-2.56
-3.56
-5.28
-7.57
-10.06
-12.27
-13.59
-13.64
-12.40
-10.32
-8.14
-6.56
-5.92
-5.95
-5.97
-5.23
-3.41
-0.77
2.00
4.21
5.64
6.51
7.24
8.03
8.72
8.90
8.35
7.29
6.35
6.10
6.76
8.06
9.31
9.88
9.42
8.05
6.12
4.00
1.91
-0.08
-1.90
-3.42
-4.36
-4.40
-3.43
-1.67
0.24
1.56
1.75
0.89
-0.36
-0.99
-0.23
2.01
5.09
7.94
9.59
9.57
8.11
5.87
3.60
1.84
0.77
0.27
0.04
-0.20
-0.59
-1.12
-1.64
-2.00
-2.07
-1.91
-1.70
-1.70
-2.14
-3.11
-4.56
-6.26
-7.86
-9.03
-9.49
-9.16
-8.16
-6.74
-5.26
-3.95
-2.90
-2.04
-1.19
-0.29
0.63
1.42
1.92
2.06
1.91
1.64
1.42
1.29
1.19
0.99
0.64
0.24
-0.04
-0.03
0.27
0.69
0.99
1.02
0.82
0.56
0.43
0.49
0.53
0.31
-0.35
-1.36
-2.31
-2.71
-2.16
-0.61
1.67
4.18
6.47
8.31
9.69
10.78
11.76
12.70
13.55
14.17
14.43
14.35
13.98
13.43
12.77
11.93
10.75
9.03
6.69
3.78
0.55
-2.64
-5.42
-7.53
-8.84
-9.36
-9.24
-8.67
-7.90
-7.20
-6.78
-6.74
-7.02
-7.37
-7.41
-6.78
-5.31
-3.10
-0.54
1.90
3.85
5.16
5.89
6.23
6.34
6.24
5.92
5.36
4.66
4.01
3.62
3.56
3.72
3.86
3.65
2.91
1.62
-0.03
-1.78
-3.34
-4.61
-5.58
-6.33
-6.91
-7.21
-7.12
-6.64
-6.02
-5.74
-6.22
-7.63
-9.67
-11.76
-13.26
-13.85
-13.56
-12.65
-11.48
-10.26
-9.14
-8.21
-7.51
-6.84
-5.47
-2.15
4.49
15.19
29.36
44.77
58.15
66.32
67.48
61.89
51.54
38.94
25.50
11.03
-5.46
-23.95
-42.20
-56.05
-61.27
-55.47
-38.92
-13.69
17.91
54.02
92.59
129.76
159.35
174.21
169.55
145.86
109.29
69.42
34.94
10.41
-4.53
-13.28
-19.56
-25.61
-31.86
-37.72
-42.47
-46.12
-49.53
-54.23
-61.88
-73.46
-88.60
-105.28
-120.23
-130.18
-133.33
-130.13
-123.13
-115.74
-110.81
-109.71
-112.08
-116.38
-120.54
-122.46
-120.20
-112.08
-97.01
-74.64
-45.77
-12.47
22.05
54.03
80.03
97.90
107.32
109.81
107.97
104.53
101.41
99.28
97.80
96.11
93.40
89.27
83.71
76.97
69.30
61.02
52.53
44.36
37.11
31.30
27.16
24.50
22.86
21.61
20.22
18.45
16.28
13.93
11.65
9.62
7.92
6.51
5.31
4.21
3.09
1.82
0.28
-1.57
-3.68
-5.86
-7.85
-9.42
-10.49
-11.10
-11.40
-11.52
-11.52
-11.40
-11.19
-10.98
-10.95
-11.28
-12.09
-13.34
-14.87
-16.47
-17.94
-19.17
-20.14
-20.90
-21.53
-22.16
-22.89
-23.79
-24.86
-26.06
-27.40
-28.89
-30.67
-32.86
-35.50
-38.45
-41.39
-43.78
-44.99
-44.34
-41.20
-35.08
-25.73
-13.25
1.77
18.32
34.99
50.30
63.00
72.46
78.73
82.52
84.86
86.70
88.59
90.56
92.31
93.37
93.45
92.49
90.65
88.21
85.47
82.77
80.43
78.80
78.09
78.19
78.46
77.78
74.69
67.90
56.79
41.72
23.95
5.17
-13.17
-30.39
-46.65
-62.51
-78.24
-93.29
-106.24
-115.36
-119.35
-117.94
-111.95
-103.01
-92.80
-82.61
-73.13
-64.60
-57.02
-50.43
-44.90
-40.44
-36.84
-33.76
-30.75
-27.48
-23.92
-20.27
-16.90
-14.15
-12.10
-10.60
-9.38
-8.20
-6.99
-5.83
-4.93
-4.38
-4.16
-4.09
-3.96
-3.59
-2.90
-1.93
-0.81
0.28
1.17
1.77
2.07
2.20
2.31
2.57
3.05
3.69
4.35
4.89
5.20
5.26
5.14
4.96
4.84
4.83
4.90
4.90
4.62
3.91
2.76
1.32
-0.12
-1.24
-1.84
-1.94
-1.72
-1.42
-1.26
-1.33
-1.57
-1.89
-2.20
-2.40
-2.46
-2.37
-2.19
-2.06
-2.17
-2.71
-3.68
-4.90
-6.00
-6.60
-6.48
-5.67
-4.43
-3.06
-1.77
-0.62
0.46
1.51
2.54
3.47
4.18
4.56
4.54
4.05
3.07
1.69
0.09
-1.47
-2.69
-3.43
-3.70
-3.67
-3.56
-3.51
-3.52
-3.47
-3.24
-2.81
-2.31
-1.91
-1.78
-2.01
-2.53
-3.20
-3.89
-4.49
-4.91
-5.09
-4.95
-4.44
-3.58
-2.46
-1.24
-0.07
0.95
1.81
2.56
3.27
3.93
4.57
5.12
5.53
5.68
5.41
4.63
3.42
2.05
0.92
0.36
0.49
1.07
1.74
2.11
2.01
1.57
1.05
0.67
0.54
0.60
0.65
0.56
0.21
-0.42
-1.31
-2.34
-3.34
-4.06
-4.32
-4.00
-3.21
-2.17
-1.16
-0.40
0.07
0.38
0.74
1.27
1.96
2.58
2.82
2.42
1.32
-0.26
-1.96
-3.44
-4.51
-5.22
-5.72
-6.21
-6.73
-7.19
-7.48
-7.55
-7.49
-7.48
-7.64
-7.93
-8.09
-7.82
-6.91
-5.45
-3.74
-2.24
-1.25
-0.80
-0.69
-0.52
0.17
1.81
4.71
9.05
14.74
21.35
28.17
34.38
39.29
42.58
44.32
44.88
44.80
44.59
44.73
45.47
46.69
47.72
47.48
44.81
39.10
30.72
21.01
11.85
4.86
0.74
-0.87
-1.06
-1.05
-1.76
-3.63
-6.80
-11.32
-17.22
-24.35
-32.18
-39.81
-46.12
-50.26
-51.94
-51.57
-50.10
-48.55
-47.62
-47.35
-47.17
-46.23
-43.78
-39.58
-34.03
-28.01
-22.48
-18.06
-14.86
-12.54
-10.72
-9.22
-8.22
-7.99
-8.65
-9.92
-11.23
-12.03
-12.10
-11.74
-11.60
-12.37
-14.36
-17.39
-20.71
-23.30
-24.15
-22.57
-18.40
-12.01
-4.21
4.01
11.78
18.53
24.00
28.12
30.91
32.41
32.71
31.97
30.46
28.56
26.55
24.66
22.92
21.24
19.48
17.59
15.66
13.90
12.59
11.93
11.91
12.26
12.56
12.38
11.46
9.83
7.82
5.86
4.35
3.48
3.25
3.48
4.00
4.71
5.58
6.65
7.95
9.52
11.36
13.46
15.80
18.33
20.92
23.46
25.84
28.05
30.19
32.47
35.06
38.00
41.15
44.12
46.40
47.35
46.51
43.60
38.71
32.18
24.51
16.19
7.64
-0.80
-8.84
-16.12
-22.31
-27.16
-30.64
-32.96
-34.47
-35.56
-36.45
-37.21
-37.75
-38.01
-37.91
-37.50
-36.80
-35.75
-34.27
-32.30
-29.86
-27.10
-24.29
-21.66
-19.34
-17.37
-15.64
-14.00
-12.27
-10.38
-8.39
-6.48
-4.92
-3.91
-3.52
-3.59
-3.78
-3.74
-3.26
-2.35
-1.23
-0.15
0.78
1.56
2.28
2.95
3.47
3.62
3.26
2.40
1.26
0.16
-0.63
-1.09
-1.38
-1.78
-2.54
-3.64
-4.81
-5.63
-5.70
-4.84
-3.20
-1.16
0.83
2.38
3.38
3.91
4.17
4.40
4.71
5.09
5.44
5.57
5.38
4.89
4.29
3.81
3.68
3.99
4.62
5.37
6.05
6.57
6.89
7.06
6.99
6.60
5.77
4.54
3.11
1.82
0.95
0.56
0.38
-0.14
-1.51
-3.94
-7.16
-10.42
-12.80
-13.57
-12.59
-10.29
-7.60
-5.43
-4.34
-4.19
-4.32
-3.87
-2.26
0.40
3.39
5.69
6.55
5.98
4.93
5.16
8.89
18.26
34.63
57.92
86.15
115.44
140.69
156.88
160.61
151.02
129.99
101.34
69.60
38.81
11.78
-10.10
-26.76
-39.10
-48.52
-56.39
-63.43
-69.40
-73.12
-72.98
-67.71
-57.05
-42.05
-24.83
-8.07
5.70
14.60
17.53
14.38
6.06
-5.48
-17.49
-26.81
-30.63
-27.24
-16.62
-0.50
18.06
35.78
50.18
60.41
67.27
72.47
77.57
83.01
87.66
89.20
85.03
73.51
54.91
31.71
7.96
-12.18
-25.84
-32.40
-33.50
-32.05
-30.76
-31.01
-32.24
-32.16
-27.43
-14.70
8.18
41.03
80.67
121.07
154.38
172.98
171.68
149.57
110.56
62.42
14.89
-22.66
-43.01
-42.23
-20.11
20.00
71.98
128.48
182.77
230.46
270.38
303.89
333.16
359.28
381.03
395.36
399.07
390.70
371.64
345.61
316.97
288.71
261.40
233.39
202.02
165.12
121.81
72.59
18.48
-39.60
-101.41
-167.20
-237.20
-311.21
-388.74
-469.37
-552.95
-638.99
-725.35
-807.12
-876.71
-925.70
-947.72
-941.07
-909.54
-860.90
-803.90
-745.42
-689.13
-635.96
-585.65
-538.05
-493.38
-451.72
-412.33
-373.61
-333.82
-292.08
-248.86
-205.77
-164.85
-127.44
-93.60
-62.09
-31.06
1.08
34.93
69.94
104.71
137.72
168.08
195.83
221.92
247.93
275.58
306.21
340.09
375.95
410.80
440.48
460.87
469.24
465.20
450.78
429.38
404.35
377.88
350.73
322.84
294.32
266.00
239.33
215.64
195.43
178.12
162.44
147.20
131.87
116.80
102.87
90.95
81.32
73.64
67.11
60.94
54.70
48.47
42.70
37.89
34.36
32.02
30.38
28.74
26.45
23.16
19.01
14.54
10.47
7.33
5.28
4.00
2.97
1.64
-0.20
-2.48
-4.85
-6.93
-8.41
-9.14
-9.13
-8.44
-7.23
-5.72
-4.20
-2.95
-2.25
-2.24
-2.87
-3.90
-4.91
-5.52
-5.46
-4.70
-3.45
-2.08
-0.97
-0.43
-0.63
-1.59
-3.19
-5.18
-7.20
-8.88
-9.88
-10.13
-9.78
-9.22
-8.86
-8.99
-9.65
-10.68
-11.80
-12.68
-13.08
-12.77
-11.67
-9.77
-7.28
-4.53
-1.98
0.00
1.26
1.90
2.17
2.38
2.72
3.22
3.84
4.53
5.30
6.14
6.93
7.42
7.22
6.04
3.84
0.94
-2.06
-4.51
-6.05
-6.72
-6.95
-7.29
-8.14
-9.54
-11.21
-12.68
-13.53
-13.56
-12.76
-11.29
-9.35
-7.13
-4.82
-2.68
-0.91
0.37
1.22
1.88
2.65
3.77
5.29
7.12
8.99
10.59
11.68
12.04
11.58
10.30
8.36
6.03
3.74
1.84
0.51
-0.30
-0.88
-1.54
-2.52
-3.91
-5.61
-7.45
-9.21
-10.67
-11.63
-11.93
-11.51
-10.47
-9.03
-7.52
-6.19
-5.13
-4.27
-3.33
-2.08
-0.37
1.73
4.01
6.18
8.02
9.42
10.38
10.93
11.01
10.45
9.04
6.64
3.36
-0.45
-4.26
-7.57
-10.08
-11.72
-12.64
-13.02
-13.05
-12.82
-12.46
-12.12
-11.92
-11.89
-11.84
-11.41
-10.17
-7.93
-4.81
-1.30
1.94
4.37
5.85
6.65
7.40
8.73
11.00
14.07
17.34
19.96
21.11
20.39
17.87
14.04
9.59
5.17
1.23
-1.94
-4.21
-5.52
-5.90
-5.50
-4.65
-3.68
-2.93
-2.57
-2.66
-3.13
-3.91
-5.00
-6.41
-8.10
-9.81
-11.19
-11.86
-11.57
-10.37
-8.61
-6.82
-5.48
-4.84
-4.77
-4.90
-4.81
-4.19
-3.03
-1.61
-0.39
0.19
-0.09
-1.10
-2.41
-3.47
-3.82
-3.33
-2.24
-1.01
-0.03
0.51
0.72
0.84
1.03
1.26
1.36
1.11
0.44
-0.57
-1.75
-3.03
-4.47
-6.21
-8.24
-10.29
-11.82
-12.21
-11.08
-8.45
-4.82
-0.99
2.27
4.48
5.65
6.13
6.45
7.03
8.01
9.25
10.41
11.17
11.32
10.79
9.67
8.09
6.21
4.25
2.42
1.02
0.25
0.18
0.64
1.23
1.54
1.31
0.58
-0.33
-1.07
-1.45
-1.62
-2.03
-3.13
-5.04
-7.40
-9.46
-10.44
-9.88
-8.00
-5.52
-3.36
-2.15
-1.93
-2.18
-2.13
-1.21
0.69
3.16
5.59
7.49
8.72
9.47
10.02
10.49
10.69
10.25
8.89
6.64
3.93
1.45
-0.21
-0.81
-0.56
-0.03
0.26
0.02
-0.63
-1.37
-1.98
-2.46
-3.16
-4.43
-6.37
-8.66
-10.64
-11.62
-11.26
-9.73
-7.63
-5.66
-4.30
-3.57
-3.09
-2.43
-1.28
0.33
2.08
3.60
4.69
5.34
5.76
6.13
6.48
6.66
6.42
5.59
4.26
2.72
1.35
0.44
0.02
-0.13
-0.29
-0.68
-1.32
-2.06
-2.76
-3.42
-4.20
-5.35
-6.98
-8.87
-10.50
-11.26
-10.76
-9.03
-6.59
-4.17
-2.33
-1.24
-0.58
0.22
1.66
3.92
6.73
9.55
11.82
13.19
13.60
13.20
12.23
10.91
9.38
7.73
6.09
4.60
3.35
2.33
1.39
0.33
-0.95
-2.41
-3.79
-4.77
-5.18
-5.11
-4.93
-5.09
-5.80
-6.91
-7.82
-7.85
-6.58
-4.09
-0.98
1.88
3.78
4.44
4.12
3.46
3.11
3.49
4.60
6.06
7.38
8.15
8.25
7.86
7.29
6.75
6.25
5.57
4.38
2.57
0.34
-1.86
-3.49
-4.24
-4.22
-3.88
-3.83
-4.55
-6.20
-8.61
-11.37
-14.00
-16.01
-17.04
-16.85
-15.51
-13.39
-11.15
-9.55
-9.11
-9.84
-11.16
-12.17
-12.01
-10.31
-7.31
-3.76
-0.53
1.73
2.82
2.93
2.40
1.53
0.48
-0.72
-1.98
-3.16
-4.00
-4.34
-4.15
-3.64
-3.12
-2.91
-3.22
-4.07
-5.38
-7.01
-8.79
-10.54
-12.01
-12.85
-12.79
-11.67
-9.56
-6.81
-3.95
-1.48
0.26
1.26
1.85
2.53
3.76
5.69
8.16
10.69
12.75
13.98
14.37
14.17
13.68
13.07
12.25
11.09
9.53
7.79
6.22
5.12
4.54
4.23
3.84
3.09
1.98
0.72
-0.43
-1.42
-2.39
-3.62
-5.26
-7.09
-8.68
-9.45
-9.05
-7.51
-5.25
-2.95
-1.18
-0.24
-0.01
-0.06
0.11
0.82
2.14
3.84
5.58
7.05
8.06
8.62
8.80
8.67
8.16
7.20
5.71
3.87
1.99
0.47
-0.46
-0.86
-1.08
-1.57
-2.59
-4.01
-5.37
-6.10
-5.92
-5.01
-3.94
-3.39
-3.80
-5.07
-6.68
-7.88
-8.12
-7.27
-5.64
-3.81
-2.28
-1.19
-0.31
0.81
2.57
5.06
8.01
10.89
13.15
14.51
14.95
14.70
14.00
12.99
11.62
9.77
7.44
4.83
2.29
0.17
-1.35
-2.37
-3.19
-4.13
-5.35
-6.75
-8.01
-8.76
-8.80
-8.18
-7.25
-6.51
-6.39
-7.11
-8.54
-10.25
-11.60
-12.04
-11.30
-9.47
-6.99
-4.43
-2.26
-0.62
0.63
1.86
3.39
5.39
7.77
10.27
12.67
14.78
16.52
17.82
18.52
18.40
17.29
15.25
12.65
10.14
8.35
7.63
7.88
8.52
8.81
8.11
6.26
3.61
0.86
-1.23
-2.19
-1.99
-1.03
-0.00
0.42
-0.28
-2.25
-5.25
-8.66
-11.70
-13.61
-13.94
-12.72
-10.45
-7.92
-5.93
-4.92
-4.85
-5.25
-5.44
-4.84
-3.23
-0.74
2.19
5.09
7.53
9.27
10.19
10.22
9.36
7.68
5.44
3.03
0.95
-0.44
-1.04
-1.08
-0.99
-1.22
-2.05
-3.44
-5.11
-6.63
-7.66
-8.09
-8.08
-8.08
-8.62
-10.10
-12.57
-15.62
-18.53
-20.46
-20.81
-19.45
-16.73
-13.33
-10.06
-7.49
-5.84
-4.97
-4.45
-3.74
-2.44
-0.36
2.36
5.32
7.96
9.78
10.42
9.82
8.19
5.96
3.64
1.78
0.75
0.70
1.50
2.71
3.75
4.10
3.49
2.01
0.12
-1.58
-2.57
-2.60
-1.88
-0.90
-0.34
-0.75
-2.34
-4.83
-7.59
-9.78
-10.74
-10.24
-8.49
-6.04
-3.55
-1.45
0.14
1.34
2.42
3.61
4.97
6.51
8.08
9.53
10.72
11.48
11.70
11.33
10.38
8.98
7.33
5.64
4.12
2.94
2.14
1.71
1.51
1.33
0.96
0.22
-0.83
-1.97
-2.79
-3.03
-2.68
-2.13
-2.06
-3.03
-5.18
-8.04
-10.73
-12.24
-12.05
-10.25
-7.54
-4.87
-3.01
-2.20
-2.15
-2.17
-1.60
-0.10
2.26
5.00
7.57
9.56
10.81
11.40
11.53
11.31
10.77
9.89
8.73
7.47
6.38
5.63
5.25
5.00
4.53
3.51
1.82
-0.33
-2.48
-4.10
-4.89
-4.97
-4.84
-5.16
-6.45
-8.75
-11.55
-14.01
-15.29
-14.94
-13.11
-10.43
-7.70
-5.52
-4.03
-2.93
-1.69
0.14
2.67
5.64
8.53
10.82
12.29
12.95
13.03
12.68
11.91
10.55
8.51
5.92
3.25
1.07
-0.16
-0.43
-0.16
-0.04
-0.63
-2.08
-4.05
-5.87
-6.89
-6.86
-6.01
-4.97
-4.48
-5.00
-6.50
-8.42
-9.97
-10.44
-9.56
-7.56
-5.11
-2.95
-1.51
-0.80
-0.43
0.10
1.16
2.80
4.79
6.83
8.66
10.20
11.38
12.15
12.29
11.60
9.94
7.49
4.73
2.32
0.83
0.49
1.01
1.75
1.94
1.06
-0.93
-3.59
-6.19
-8.02
-8.69
-8.28
-7.28
-6.40
-6.30
-7.28
-9.16
-11.32
-12.90
-13.22
-12.02
-9.61
-6.77
-4.36
-2.97
-2.72
-3.25
-3.98
-4.35
-4.06
-3.09
-1.67
-0.07
1.45
2.72
3.60
3.98
3.75
2.89
1.55
0.11
-0.87
-0.94
0.12
2.03
4.15
5.69
6.05
5.10
3.20
1.08
-0.52
-1.14
-0.77
0.19
1.04
1.20
0.32
-1.54
-3.93
-6.16
-7.58
-7.79
-6.79
-4.97
-2.98
-1.36
-0.40
0.01
0.21
0.63
1.49
2.77
4.31
5.90
7.41
8.76
9.83
10.40
10.19
9.00
6.93
4.40
2.09
0.60
0.25
0.90
2.05
3.01
3.26
2.63
1.35
-0.06
-1.08
-1.39
-1.08
-0.54
-0.33
-0.86
-2.29
-4.47
-6.99
-9.37
-11.15
-12.02
-11.85
-10.70
-8.87
-6.75
-4.77
-3.20
-2.08
-1.20
-0.26
1.05
2.85
5.06
7.43
9.61
11.31
12.29
12.46
11.86
10.62
8.90
6.91
4.95
3.42
2.66
2.85
3.79
4.91
5.46
4.84
2.96
0.33
-2.21
-3.86
-4.23
-3.61
-2.71
-2.42
-3.30
-5.41
-8.32
-11.33
-13.75
-15.10
-15.29
-14.46
-12.91
-10.94
-8.83
-6.74
-4.79
-3.00
-1.32
0.39
2.25
4.31
6.48
8.60
10.53
12.17
13.41
14.11
14.03
12.94
10.83
8.01
5.10
2.82
1.66
1.62
2.25
2.86
2.83
1.89
0.25
-1.59
-3.08
-3.81
-3.73
-3.06
-2.23
-1.68
-1.68
-2.34
-3.56
-5.11
-6.75
-8.23
-9.40
-10.15
-10.45
-10.31
-9.83
-9.16
-8.48
-7.89
-7.35
-6.62
-5.37
-3.32
-0.37
3.31
7.31
11.12
14.25
16.33
17.11
16.52
14.67
11.94
8.97
6.47
5.01
4.64
4.88
4.89
3.87
1.53
-1.80
-5.23
-7.71
-8.54
-7.62
-5.43
-2.88
-0.89
-0.10
-0.72
-2.53
-4.97
-7.34
-8.95
-9.33
-8.34
-6.17
-3.33
-0.41
2.04
3.72
4.63
5.05
5.41
6.13
7.47
9.45
11.79
13.98
15.44
15.71
14.55
12.05
8.56
4.62
0.84
-2.24
-4.25
-5.12
-5.10
-4.72
-4.58
-5.14
-6.53
-8.43
-10.30
-11.56
-11.95
-11.70
-11.42
-11.85
-13.44
-16.09
-19.05
-21.27
-21.76
-20.11
-16.65
-12.33
-8.34
-5.55
-4.22
-3.98
-4.09
-3.81
-2.71
-0.76
1.79
4.51
7.00
8.92
10.05
10.30
9.70
8.46
6.87
5.35
4.34
4.17
4.95
6.49
8.29
9.76
10.41
10.04
8.92
7.58
6.59
6.24
6.38
6.45
5.80
3.95
0.95
-2.56
-5.60
-7.21
-6.82
-4.55
-1.14
2.39
5.09
6.55
6.85
6.48
6.00
5.78
5.86
6.13
6.40
6.57
6.57
6.34
5.71
4.46
2.51
0.02
-2.52
-4.39
-4.98
-4.03
-1.81
0.96
3.42
4.85
4.91
3.81
2.10
0.50
-0.46
-0.59
-0.14
0.29
-0.04
-1.66
-4.56
-8.10
-11.15
-12.57
-11.74
-8.85
-4.87
-1.07
1.56
2.66
2.57
1.97
1.49
1.45
1.84
2.53
3.43
4.51
5.67
6.66
7.15
6.83
5.63
3.83
1.97
0.63
0.16
0.52
1.31
1.97
2.02
1.28
-0.12
-1.76
-3.16
-3.94
-3.98
-3.45
-2.74
-2.41
-2.90
-4.38
-6.68
-9.22
-11.26
-12.20
-11.78
-10.19
-7.95
-5.63
-3.58
-1.83
-0.20
1.53
3.35
5.12
6.60
7.67
8.41
8.96
9.47
9.91
10.06
9.61
8.33
6.30
3.94
1.88
0.74
0.80
1.87
3.35
4.50
4.81
4.20
3.11
2.19
2.04
2.82
4.28
5.79
6.69
6.54
5.20
2.94
0.20
-2.48
-4.57
-5.72
-5.78
-4.85
-3.26
-1.39
0.39
1.87
3.00
3.82
4.46
5.04
5.73
6.66
7.95
9.56
11.27
12.65
13.23
12.65
10.83
8.06
4.93
2.16
0.38
-0.07
0.72
2.27
3.77
4.45
3.79
1.87
-0.77
-3.22
-4.70
-4.80
-3.73
-2.19
-1.10
-1.19
-2.68
-5.18
-7.81
-9.61
-9.89
-8.56
-6.17
-3.68
-2.08
-1.91
-3.05
-4.80
-6.20
-6.41
-5.09
-2.47
0.76
3.71
5.59
5.94
4.69
2.09
-1.37
-5.16
-8.81
-11.91
-14.20
-15.49
-15.75
-15.06
-13.71
-12.15
-10.78
-9.83
-9.26
-8.86
-8.48
-8.30
-8.81
-10.55
-13.76
-17.99
-22.20
-25.11
-25.74
-23.90
-20.18
-15.73
-11.71
-8.86
-7.26
-6.43
-5.61
-4.07
-1.44
2.26
6.61
10.99
14.77
17.45
18.77
18.69
17.31
14.88
11.77
8.51
5.69
3.80
3.06
3.30
4.00
4.46
4.14
2.89
1.05
-0.72
-1.80
-1.94
-1.44
-1.04
-1.49
-3.17
-5.76
-8.39
-10.00
-9.88
-8.00
-5.05
-2.05
0.11
1.10
1.19
1.02
1.26
2.24
3.88
5.82
7.60
8.91
9.65
9.87
9.71
9.25
8.55
7.63
6.61
5.68
5.09
5.02
5.47
6.15
6.59
6.37
5.28
3.52
1.64
0.26
-0.23
0.04
0.52
0.38
-0.99
-3.70
-7.22
-10.65
-13.02
-13.72
-12.74
-10.58
-7.95
-5.45
-3.31
-1.38
0.66
3.03
5.71
8.40
10.72
12.38
13.33
13.72
13.75
13.50
12.90
11.75
9.99
7.76
5.53
3.85
3.11
3.29
3.96
4.44
4.15
2.90
0.98
-0.99
-2.34
-2.72
-2.21
-1.25
-0.51
-0.57
-1.71
-3.86
-6.57
-9.22
-11.19
-12.07
-11.78
-10.54
-8.78
-6.90
-5.15
-3.59
-2.10
-0.58
1.06
2.82
4.68
6.65
8.78
11.09
13.51
15.78
17.50
18.25
17.71
15.92
13.28
10.52
8.38
7.34
7.35
7.89
8.14
7.42
5.49
2.66
-0.32
-2.66
-3.83
-3.82
-3.05
-2.21
-1.94
-2.65
-4.40
-6.86
-9.51
-11.67
-12.76
-12.46
-10.83
-8.31
-5.55
-3.17
-1.53
-0.66
-0.20
0.30
1.23
2.80
4.98
7.55
10.23
12.69
14.60
15.65
15.58
14.29
11.91
8.90
5.93
3.75
2.83
3.18
4.32
5.46
5.79
4.90
2.91
0.44
-1.70
-2.79
-2.60
-1.45
-0.06
0.61
-0.12
-2.40
-5.71
-9.02
-11.18
-11.35
-9.40
-5.89
-1.79
1.94
4.79
6.77
8.32
10.05
12.44
15.58
19.11
22.14
23.46
21.80
16.29
6.81
-5.90
-20.51
-35.45
-49.31
-61.03
-69.80
-74.99
-76.16
-73.25
-66.86
-58.25
-49.04
-40.66
-33.78
-28.17
-22.95
-17.14
-10.27
-2.66
4.67
10.46
13.75
14.25
12.52
9.69
7.08
5.77
6.26
8.37
11.46
14.65
17.20
18.71
19.19
18.96
18.48
18.18
18.33
18.99
20.05
21.30
22.45
23.18
23.21
22.38
20.68
18.33
15.76
13.46
11.84
11.05
10.92
10.95
10.58
9.37
7.25
4.60
2.05
0.26
-0.41
-0.09
0.63
0.94
0.14
-2.04
-5.33
-9.01
-12.20
-14.17
-14.54
-13.38
-11.09
-8.25
-5.39
-2.88
-0.84
0.86
2.45
4.18
6.17
8.36
10.57
12.53
14.03
14.89
14.97
14.21
12.57
10.16
7.31
4.56
2.48
1.49
1.67
2.66
3.81
4.47
4.24
3.19
1.80
0.71
0.52
1.37
2.97
4.66
5.66
5.39
3.66
0.78
-2.61
-5.69
-7.72
-8.27
-7.30
-5.17
-2.51
0.04
2.00
3.18
3.73
3.95
4.18
4.67
5.53
6.82
8.45
10.25
11.93
13.06
13.23
12.20
10.05
7.19
4.31
2.14
1.23
1.72
3.27
5.15
6.48
6.55
5.11
2.52
-0.46
-2.89
-4.14
-4.16
-3.53
-3.21
-4.14
-6.83
-11.04
-15.89
-20.13
-22.62
-22.85
-21.07
-18.27
-15.73
-14.51
-15.02
-16.87
-19.07
-20.47
-20.19
-17.97
-14.13
-9.46
-4.85
-1.08
1.38
2.33
1.89
0.34
-1.84
-4.03
-5.56
-5.82
-4.49
-1.77
1.65
4.71
6.30
5.72
2.97
-1.23
-5.67
-9.14
-10.89
-10.97
-10.15
-9.57
-10.15
-12.11
-14.86
-17.20
-17.87
-16.15
-12.15
-6.75
-1.17
3.49
6.70
8.48
9.26
9.55
9.75
10.12
10.85
12.11
14.01
16.54
19.42
22.15
24.04
24.52
23.30
20.62
17.16
13.82
11.40
10.21
9.99
10.02
9.51
7.95
5.41
2.49
0.08
-1.10
-0.75
0.88
3.08
5.02
6.00
5.79
4.67
3.39
2.84
3.63
5.87
9.07
12.39
14.99
16.43
16.79
16.54
16.29
16.50
17.33
18.71
20.39
22.14
23.75
24.98
25.50
24.97
23.10
19.77
15.28
10.25
5.48
1.65
-1.05
-3.06
-5.33
-8.98
-14.78
-22.71
-31.80
-40.40
-46.85
-50.15
-50.36
-48.53
-46.15
-44.46
-43.86
-43.88
-43.48
-41.65
-37.87
-32.31
-25.68
-18.91
-12.88
-8.19
-5.15
-3.79
-3.78
-4.54
-5.31
-5.36
-4.17
-1.70
1.71
5.36
8.47
10.40
10.92
10.25
9.04
8.05
7.88
8.72
10.20
11.61
12.17
11.39
9.29
6.46
3.74
1.91
1.30
1.66
2.18
1.85
-0.11
-3.85
-8.77
-13.70
-17.44
-19.18
-18.88
-17.14
-14.81
-12.48
-10.20
-7.52
-3.89
0.94
6.65
12.52
17.70
21.63
24.21
25.70
26.50
26.87
26.82
26.21
24.94
23.03
20.74
18.42
16.37
14.75
13.43
12.10
10.43
8.26
5.69
3.08
0.73
-1.38
-3.68
-6.86
-11.30
-16.78
-22.32
-26.59
-28.59
-28.25
-26.49
-24.86
-24.79
-26.82
-30.38
-33.93
-35.70
-34.34
-29.50
-21.90
-13.01
-4.53
2.25
6.75
9.13
9.98
9.92
9.37
8.50
7.47
6.58
6.24
6.79
8.15
9.75
10.70
10.25
8.14
4.86
1.36
-1.38
-2.83
-3.18
-3.14
-3.47
-4.53
-6.04
-7.31
-7.64
-6.83
-5.35
-4.07
-3.83
-4.92
-6.93
-8.96
-10.07
-9.69
-7.80
-4.87
-1.55
1.58
4.11
5.91
6.95
7.28
7.01
6.24
5.16
3.99
3.03
2.47
2.40
2.70
3.05
3.18
2.94
2.49
2.20
2.33
2.85
3.36
3.25
2.15
0.23
-1.81
-3.02
-2.67
-0.72
2.18
5.01
6.84
7.30
6.71
5.86
5.63
6.49
8.43
11.00
13.58
15.67
16.98
17.49
17.26
16.36
14.85
12.91
10.93
9.50
9.14
10.11
12.12
14.41
16.00
16.12
14.57
11.87
8.96
6.79
5.79
5.63
5.35
3.96
0.99
-3.14
-7.21
-9.84
-10.11
-8.07
-4.64
-1.14
1.36
2.49
2.58
2.37
2.56
3.55
5.31
7.53
9.75
11.55
12.65
12.94
12.45
11.23
9.31
6.76
3.77
0.81
-1.55
-2.85
-3.00
-2.52
-2.27
-3.07
-5.19
-8.26
-11.45
-14.03
-15.81
-17.23
-19.04
-21.75
-25.22
-28.63
-30.86
-31.11
-29.37
-26.53
-23.96
-22.93
-23.85
-26.03
-27.97
-28.00
-25.13
-19.43
-12.07
-4.73
1.07
4.49
5.54
4.77
2.91
0.53
-2.02
-4.46
-6.47
-7.58
-7.41
-5.95
-3.65
-1.44
-0.30
-0.79
-2.75
-5.29
-7.24
-7.73
-6.70
-4.91
-3.48
-3.28
-4.44
-6.17
-7.24
-6.55
-3.66
0.93
6.10
10.62
13.66
15.10
15.41
15.38
15.71
16.72
18.38
20.32
22.12
23.49
24.29
24.48
24.09
23.08
21.39
19.08
16.38
13.68
11.45
9.96
9.16
8.62
7.78
6.18
3.77
0.96
-1.60
-3.33
-4.11
-4.38
-4.91
-6.39
-9.04
-12.40
-15.52
-17.37
-17.33
-15.42
-12.28
-8.86
-5.95
-3.87
-2.42
-1.07
0.68
3.10
6.08
9.24
12.12
14.39
15.89
16.58
16.48
15.53
13.67
10.96
7.73
4.55
2.10
0.85
0.78
1.37
1.79
1.31
-0.33
-2.75
-5.14
-6.63
-6.82
-5.98
-4.98
-4.88
-6.35
-9.31
-12.91
-15.89
-17.11
-16.08
-13.14
-9.24
-5.50
-2.69
-0.95
0.16
1.33
3.11
5.64
8.65
11.68
14.29
16.22
17.39
17.77
17.28
15.82
13.44
10.45
7.51
5.44
4.84
5.78
7.71
9.61
10.56
10.06
8.34
6.17
4.55
4.19
5.20
7.02
8.64
9.02
7.52
4.18
-0.21
-4.36
-7.00
-7.33
-5.38
-1.87
2.04
5.33
7.44
8.44
8.85
9.37
10.59
12.78
15.82
19.27
22.55
25.06
26.34
26.16
24.50
21.56
17.71
13.56
9.78
7.03
5.72
5.85
7.00
8.39
9.20
8.82
7.15
4.56
1.82
-0.36
-1.63
-2.26
-3.16
-5.45
-9.86
-16.28
-23.61
-30.11
-34.07
-34.55
-31.70
-26.74
-21.43
-17.55
-16.25
-17.73
-21.10
-24.60
-26.12
-23.79
-16.74
-5.45
8.24
21.62
31.74
35.98
32.63
21.12
2.45
-20.88
-45.46
-68.28
-88.07
-106.01
-124.87
-147.30
-173.62
-200.64
-222.24
-231.43
-222.64
-193.33
-144.56
-80.81
-9.40
60.51
119.63
160.75
180.99
183.09
174.46
164.52
161.01
167.55
182.81
202.20
220.39
233.36
239.13
237.04
226.62
207.20
178.65
142.76
104.19
69.91
47.03
39.73
47.00
62.74
78.16
85.66
82.09
69.64
53.97
40.76
32.34
26.40
17.39
-0.60
-30.89
-72.51
-120.85
-169.91
-214.93
-253.83
-287.55
-318.67
-349.85
-383.01
-419.53
-460.61
-506.98
-557.68
-608.79
-653.23
-682.40
-689.20
-670.97
-630.69
-575.77
-514.98
-455.43
-400.78
-351.52
-306.49
-264.41
-224.73
-187.37
-152.20
-118.74
-86.33
-54.61
-23.73
5.76
33.13
57.92
80.08
99.87
117.63
133.65
148.07
161.03
172.87
184.08
195.30
207.01
219.30
231.96
244.58
256.93
269.13
281.80
295.85
312.53
333.38
360.04
393.41
432.43
473.06
508.36
530.40
533.32
516.09
483.51
444.42
408.16
380.90
363.78
353.67
345.61
335.21
319.87
298.68
271.47
238.52
200.58
159.41
117.59
77.79
42.48
13.59
-7.54
-20.22
-24.66
-22.18
-14.98
-5.31
5.56
17.91
32.88
51.28
72.32
93.48
111.53
123.86
129.18
127.17
117.34
98.22
67.94
25.88
-25.02
-77.86
-122.67
-149.32
-151.19
-127.56
-83.94
-29.69
25.61
75.24
116.49
149.88
177.26
200.00
218.17
231.03
237.80
238.07
232.50
221.88
207.20
189.52
169.87
149.16
127.94
106.40
84.21
62.59
42.80
26.30
13.95
5.27
-1.73
-9.98
-22.25
-41.14
-65.15
-92.44
-120.71
-148.08
-174.14
-200.11
-228.26
-261.04
-302.04
-350.19
-405.47
-466.42
-529.46
-588.54
-635.80
-663.42
-666.03
-644.92
-601.20
-541.84
-474.18
-403.52
-331.89
-258.72
-182.92
-91.59
-7.91
65.16
121.33
156.44
169.95
164.58
144.70
113.82
73.01
19.22
-45.50
-119.09
-195.60
-266.33
-322.73
-359.36
-375.39
-373.88
-361.21
-339.55
-311.50
-278.20
-240.24
-198.62
-155.31
-112.82
-73.42
-39.42
-9.40
18.12
45.51
75.32
109.43
148.26
190.49
233.55
274.09
310.45
341.70
368.27
391.32
412.13
431.88
451.87
473.65
498.38
526.20
554.52
578.10
590.43
586.30
564.11
526.89
481.17
434.48
392.73
358.80
332.64
312.27
294.89
277.54
257.05
230.09
193.56
145.45
86.12
19.05
-49.33
-110.79
-157.93
-186.78
-198.37
-198.34
-194.57
-193.87
-199.34
-209.96
-222.11
-232.42
-240.01
-247.37
-259.42
-281.43
-316.33
-362.84
-414.97
-463.20
-497.34
-509.90
-498.55
-466.65
-421.61
-371.71
-323.26
-279.29
-240.00
-204.61
-172.47
-143.41
-116.73
-90.25
-60.44
-24.39
17.63
61.08
98.13
120.47
123.10
106.52
76.54
41.43
8.11
-20.54
-45.81
-71.03
-98.28
-126.31
-150.60
-165.59
-167.76
-157.47
-139.33
-119.85
-104.73
-96.48
-93.38
-90.86
-83.59
-68.44
-45.46
-17.40
12.28
40.76
66.60
88.90
106.02
115.54
115.43
106.13
91.99
80.98
82.04
101.37
139.58
190.94
245.80
294.17
329.13
347.81
350.54
338.87
314.52
280.22
240.57
203.00
176.29
167.38
177.60
200.75
224.88
237.15
229.54
202.11
162.36
120.66
84.99
57.67
35.59
13.34
-12.86
-43.15
-74.55
-103.29
-127.56
-148.88
-171.62
-201.03
-240.51
-289.32
-341.97
-389.52
-422.33
-433.61
-421.90
-391.59
-351.06
-309.28
-272.50
-242.77
-218.58
-197.09
-176.33
-156.28
-138.25
-123.37
-111.29
-99.93
-86.35
-68.12
-44.24
-15.33
17.14
52.12
89.56
130.03
173.31
217.03
256.47
285.82
300.41
298.67
282.55
256.34
224.71
191.25
158.16
127.02
99.67
78.36
65.05
60.39
63.13
70.45
78.87
85.20
87.09
83.27
73.59
59.11
41.92
24.70
9.91
-0.88
-7.42
-10.55
-11.60
-11.85
-12.10
-12.67
-13.48
-14.22
-14.41
-13.45
-10.87
-6.55
-0.98
4.72
9.14
11.09
10.01
6.31
1.15
-3.94
-7.41
-8.20
-5.96
-1.26
4.55
9.79
13.26
14.97
16.54
20.73
30.11
45.32
63.92
80.45
88.19
81.78
59.58
24.58
-16.66
-56.34
-88.03
-108.08
-115.89
-112.92
-101.51
-83.98
-62.36
-38.24
-12.76
13.57
40.89
69.58
99.63
129.98
158.53
182.46
199.26
207.52
207.33
200.26
188.84
175.77
163.17
151.84
140.97
128.39
111.31
87.37
55.17
14.46
-33.96
-88.42
-146.14
-202.87
-252.99
-290.40
-310.01
-309.21
-288.53
-251.14
-201.65
-144.94
-85.62
-28.18
22.86
63.27
90.12
102.99
104.70
100.70
97.26
99.07
107.35
119.20
128.82
129.71
117.01
88.81
46.20
-7.62
-68.08
-129.69
-186.09
-230.43
-256.64
-261.39
-245.51
-214.14
-175.00
-135.37
-99.62
-67.93
-37.26
-3.59
35.71
80.37
127.40
172.26
210.53
239.14
256.80
263.86
261.72
252.59
239.47
226.07
216.46
213.95
219.64
231.53
244.67
252.77
250.46
235.24
208.03
172.31
132.45
91.93
52.65
15.14
-20.48
-53.57
-83.16
-108.41
-129.34
-147.16
-163.88
-181.39
-201.05
-223.37
-248.23
-275.43
-304.30
-333.05
-358.34
-375.59
-380.26
-369.89
-344.69
-307.14
-261.17
-210.48
-157.55
-104.11
-52.41
-5.92
30.26
52.50
61.35
61.82
62.01
69.79
88.83
116.74
146.12
166.58
170.64
157.23
130.62
97.56
64.09
32.72
2.98
-26.46
-57.95
-91.23
-117.91
-128.89
-120.14
-95.62
-65.26
-42.14
-29.77
-30.26
-44.47
-71.99
-110.32
-156.61
-206.02
-252.54
-289.05
-301.31
-283.51
-241.49
-189.78
-143.20
-112.29
-93.67
-82.20
-73.76
-65.47
-57.82
-51.16
-44.02
-33.83
-18.70
1.69
24.91
48.16
69.59
87.60
102.48
116.33
131.92
151.08
174.47
200.88
228.85
256.88
281.88
299.81
306.45
298.60
275.14
237.94
190.81
139.06
88.10
42.15
4.90
-19.65
-27.05
-13.87
19.75
67.64
118.15
157.53
174.97
167.19
139.84
104.67
73.83
54.39
45.76
41.53
34.13
19.61
-0.32
-19.60
-31.69
-32.93
-23.96
-8.45
9.40
26.89
43.11
57.96
70.59
78.41
78.26
68.21
49.16
24.92
0.86
-18.31
-30.24
-35.01
-35.02
-32.51
-28.88
-24.66
-20.53
-18.26
-20.95
-32.29
-54.97
-91.03
-139.90
-198.34
-260.44
-317.97
-361.91
-384.60
-382.17
-355.28
-310.53
-256.47
-200.94
-148.61
-100.14
-53.10
-4.23
44.19
94.53
141.23
177.24
196.07
194.56
174.53
142.60
107.97
79.12
61.91
56.93
62.14
74.25
90.17
107.29
122.89
133.68
136.22
128.72
110.88
85.61
57.62
31.80
11.53
-2.25
-10.69
-15.88
-19.14
-21.03
-20.64
-16.60
-8.25
3.70
17.01
28.74
36.28
38.52
35.93
30.70
25.84
24.02
26.55
32.99
41.37
49.04
53.88
55.06
53.37
50.88
50.02
52.58
59.01
67.97
76.60
81.32
78.99
67.86
48.42
23.05
-4.86
-32.26
-57.63
-81.71
-107.16
-137.31
-174.11
-216.38
-259.18
-295.07
-316.76
-320.13
-305.87
-279.12
-246.95
-215.24
-186.44
-159.41
-131.03
-98.29
-60.02
-17.30
27.13
69.89
107.82
138.34
159.53
170.26
170.24
159.93
140.67
114.71
84.93
54.71
27.39
5.82
-8.07
-13.44
-10.44
-0.18
15.41
33.76
52.07
68.00
80.37
89.20
95.04
98.02
97.27
91.31
79.05
60.99
39.48
17.79
-1.43
-17.41
-31.30
-44.82
-58.39
-69.77
-74.37
-67.19
-45.29
-9.62
34.79
80.33
119.24
145.79
157.65
156.06
144.96
129.57
114.62
102.76
93.79
84.92
71.90
51.30
22.05
-13.91
-52.45
-89.36
-122.66
-153.73
-186.44
-224.68
-269.04
-314.98
-353.30
-373.10
-365.90
-328.88
-266.11
-186.97
-103.05
-24.89
39.79
86.49
113.52
122.15
117.18
107.12
102.75
113.79
144.99
193.74
250.84
304.27
343.74
364.20
366.31
354.32
333.15
306.27
275.52
242.22
208.07
174.86
143.58
113.53
82.77
49.24
11.90
-28.96
-72.04
-115.51
-156.64
-191.10
-213.30
-218.35
-205.20
-178.78
-148.92
-126.05
-115.62
-114.99
-115.17
-106.80
-86.36
-58.68
-33.77
-20.03
-18.95
-24.69
-28.82
-26.47
-19.80
-16.17
-23.02
-43.27
-74.37
-111.32
-150.57
-191.67
-235.19
-279.42
-318.52
-344.75
-353.20
-345.52
-329.63
-315.29
-308.26
-307.12
-304.79
-293.57
-270.08
-237.05
-200.98
-167.69
-138.93
-112.03
-82.69
-48.54
-11.07
25.16
55.18
76.67
91.38
104.41
122.20
150.14
190.73
242.76
301.50
359.47
408.10
439.81
449.69
436.91
404.95
360.37
310.84
263.05
221.57
188.69
165.33
152.18
150.48
161.78
186.82
223.82
267.55
309.75
341.15
354.32
346.26
319.25
279.54
234.92
191.96
154.71
124.87
103.11
90.49
88.97
100.71
126.23
162.78
203.88
240.15
261.83
261.89
238.50
195.55
141.35
85.42
35.11
-5.94
-38.30
-65.05
-89.71
-114.12
-137.62
-157.28
-168.96
-168.64
-153.79
-124.53
-83.92
-37.62
7.34
44.26
68.43
78.17
74.95
62.53
45.36
27.09
9.63
-6.95
-23.75
-41.97
-62.04
-83.31
-104.33
-123.80
-140.83
-155.57
-169.31
-184.05
-202.40
-227.30
-261.24
-304.89
-355.41
-405.06
-442.41
-456.02
-439.66
-396.63
-340.48
-291.11
-267.45
-279.75
-325.45
-390.51
-455.02
-500.89
-517.40
-502.69
-461.55
-402.04
-333.20
-264.43
-205.45
-165.27
-149.84
-159.05
-185.69
-217.35
-240.86
-247.46
-235.73
-210.73
-180.40
-151.26
-126.08
-104.01
-82.44
-59.20
-33.50
-5.66
23.68
54.11
85.46
117.81
151.25
185.85
222.05
260.41
301.12
342.96
382.69
415.34
435.66
440.04
428.11
403.07
370.46
336.04
303.94
275.87
251.47
229.54
209.04
189.49
170.81
152.88
135.35
117.75
99.86
81.90
64.68
49.29
36.73
27.47
21.28
17.28
14.31
11.38
8.03
4.38
0.93
-1.80
-3.63
-4.74
-5.55
-6.53
-7.98
-10.02
-12.61
-15.76
-19.53
-23.96
-29.02
-34.50
-39.97
-44.94
-48.86
-51.23
-51.77
-50.47
-47.78
-44.53
-41.60
-39.57
-38.29
-36.77
-33.56
-27.37
-17.68
-5.11
8.86
22.38
33.84
42.30
47.52
49.74
49.41
47.05
43.18
38.39
33.33
28.63
24.80
21.98
19.98
18.26
16.21
13.35
9.60
5.32
1.10
-2.43
-4.89
-6.25
-6.69
-6.43
-5.62
-4.31
-2.59
-0.76
0.71
1.35
0.86
-0.67
-2.81
-5.06
-6.98
-8.46
-9.58
-10.41
-10.89
-10.78
-9.82
-7.86
-5.08
-1.87
1.26
3.93
5.93
7.26
7.98
8.19
7.91
7.14
5.90
4.30
2.56
0.95
-0.38
-1.45
-2.49
-3.77
-5.46
-7.33
-8.86
-9.37
-8.42
-6.05
-2.87
0.20
2.30
2.97
2.32
0.90
-0.57
-1.49
-1.56
-0.83
0.39
1.68
2.63
2.92
2.35
0.93
-1.19
-3.63
-5.92
-7.56
-8.24
-7.91
-6.80
-5.30
-3.79
-2.55
-1.62
-1.01
-0.69
-0.75
-1.29
-2.36
-3.75
-5.04
-5.72
-5.36
-3.88
-1.55
1.02
3.12
4.16
3.94
2.64
0.78
-0.98
-2.09
-2.24
-1.44
0.09
2.00
3.97
5.72
7.02
7.69
7.63
6.86
5.58
4.13
2.89
2.14
1.90
1.95
1.92
1.47
0.45
-1.08
-2.84
-4.49
-5.77
-6.49
-6.61
-6.12
-5.06
-3.51
-1.65
0.23
1.74
2.53
2.41
1.46
0.04
-1.31
-2.06
-1.86
-0.66
1.24
3.34
5.11
6.15
6.27
5.52
4.11
2.31
0.42
-1.34
-2.76
-3.69
-4.07
-3.90
-3.25
-2.25
-1.03
0.25
1.40
2.23
2.58
2.36
1.67
0.81
0.22
0.32
1.37
3.33
5.88
8.50
10.69
12.16
12.94
13.39
14.03
15.34
17.58
20.69
24.38
28.22
31.79
34.77
36.95
38.28
38.92
39.20
39.66
40.88
43.26
46.98
51.86
57.53
63.57
69.73
75.98
82.50
89.57
97.33
105.79
114.76
123.97
133.19
142.32
151.42
160.47
169.22
176.88
182.23
183.78
180.21
170.52
154.20
131.23
102.31
69.25
34.85
2.40
-25.37
-47.47
-65.13
-81.37
-99.67
-122.54
-150.62
-182.86
-217.42
-252.67
-287.78
-322.50
-356.90
-391.04
-424.91
-458.11
-489.45
-516.33
-534.70
-540.03
-528.76
-499.92
-455.69
-400.82
-340.89
-280.57
-222.50
-167.30
-114.31
-62.45
-10.79
41.11
92.92
143.19
189.28
227.69
255.08
269.47
271.13
262.54
247.55
230.02
212.92
197.83
185.22
174.85
166.17
158.46
150.80
142.29
132.27
120.65
108.02
95.51
84.45
75.82
69.92
66.29
63.88
61.42
57.90
52.89
46.65
39.94
33.66
28.60
25.09
23.05
22.03
21.49
20.86
19.78
18.05
15.64
12.64
9.25
5.78
2.59
0.06
-1.58
-2.27
-2.20
-1.75
-1.32
-1.21
-1.56
-2.33
-3.36
-4.42
-5.25
-5.51
-4.95
-3.45
-1.17
1.42
3.72
5.15
5.45
4.72
3.42
2.12
1.24
0.95
1.09
1.35
1.38
1.00
0.24
-0.69
-1.57
-2.30
-2.95
-3.68
-4.63
-5.73
-6.75
-7.42
-7.56
-7.19
-6.55
-5.93
-5.58
-5.55
-5.82
-6.27
-6.72
-6.98
-6.79
-5.94
-4.40
-2.34
-0.18
1.56
2.50
2.55
1.97
1.28
1.00
1.54
2.95
4.97
7.12
8.81
9.60
9.23
7.73
5.38
2.63
-0.06
-2.31
-3.91
-4.82
-5.09
-4.88
-4.32
-3.56
-2.74
-2.05
-1.68
-1.79
-2.39
-3.33
-4.28
-4.84
-4.67
-3.68
-2.03
-0.12
1.59
2.71
3.07
2.76
2.14
1.69
1.84
2.82
4.60
6.82
8.97
10.51
11.02
10.36
8.62
6.07
3.08
0.05
-2.66
-4.72
-5.94
-6.28
-5.86
-5.01
-4.07
-3.31
-2.87
-2.73
-2.75
-2.85
-3.06
-3.47
-4.16
-5.05
-5.83
-6.10
-5.54
-4.10
-2.10
-0.09
1.38
1.99
1.82
1.29
0.92
1.17
2.25
4.02
6.06
7.80
8.67
8.38
6.98
4.90
2.73
0.93
-0.35
-1.27
-2.11
-2.97
-3.68
-3.89
-3.36
-2.20
-0.88
0.00
0.10
-0.53
-1.45
-2.14
-2.37
-2.29
-2.32
-2.82
-3.77
-4.72
-5.04
-4.28
-2.46
-0.17
1.77
2.69
2.43
1.52
0.83
1.21
2.99
5.86
8.98
11.41
12.44
11.88
10.04
7.54
5.03
3.00
1.66
1.01
0.91
1.18
1.60
1.95
2.04
1.69
0.85
-0.41
-1.88
-3.29
-4.46
-5.37
-6.13
-6.89
-7.64
-8.14
-8.00
-6.87
-4.77
-2.14
0.19
1.44
1.24
-0.12
-1.79
-2.74
-2.21
-0.15
2.83
5.73
7.59
7.94
6.87
4.97
2.95
1.38
0.49
0.20
0.29
0.56
0.88
1.21
1.52
1.70
1.67
1.37
0.89
0.40
-0.06
-0.59
-1.51
-3.12
-5.50
-8.22
-10.50
-11.52
-10.89
-8.92
-6.49
-4.64
-3.99
-4.36
-4.87
-4.44
-2.34
1.41
6.09
10.60
14.00
15.81
16.05
15.06
13.24
10.88
8.17
5.27
2.44
-0.00
-1.70
-2.48
-2.36
-1.66
-0.83
-0.34
-0.48
-1.29
-2.60
-4.16
-5.80
-7.48
-9.26
-11.13
-12.85
-13.95
-13.87
-12.20
-8.94
-4.57
0.16
4.47
7.87
10.27
11.93
13.20
14.32
15.31
16.00
16.12
15.47
13.93
11.59
8.63
5.37
2.20
-0.44
-2.20
-2.88
-2.51
-1.45
-0.22
0.59
0.51
-0.57
-2.39
-4.35
-5.73
-5.91
-4.71
-2.50
-0.19
1.02
0.05
-3.59
-9.43
-16.09
-21.53
-23.85
-22.00
-16.30
-8.33
-0.38
5.61
8.71
9.29
8.53
7.73
7.59
8.04
8.53
8.47
7.70
6.47
5.25
4.40
4.03
3.99
4.08
4.09
3.88
3.31
2.21
0.41
-2.07
-4.93
-7.54
-9.12
-8.97
-6.83
-3.02
1.48
5.36
7.41
6.96
4.23
0.23
-3.68
-6.25
-6.96
-6.08
-4.48
-3.17
-2.82
-3.51
-4.76
-5.81
-5.96
-4.81
-2.41
0.85
4.28
7.10
8.60
8.37
6.42
3.25
-0.32
-3.37
-5.26
-5.87
-5.62
-5.26
-5.46
-6.57
-8.38
-10.31
-11.69
-12.09
-11.56
-10.48
-9.45
-8.91
-9.07
-9.79
-10.67
-11.04
-10.19
-7.51
-2.80
3.39
9.65
14.02
14.66
10.61
2.46
-7.74
-17.06
-22.79
-23.46
-19.28
-12.02
-4.17
2.03
5.30
5.68
4.17
2.11
0.53
-0.23
-0.52
-0.98
-2.08
-3.81
-5.75
-7.42
-8.57
-9.37
-10.21
-11.30
-12.44
-13.04
-12.50
-10.56
-7.45
-3.71
0.19
4.20
8.69
14.10
20.57
27.63
34.39
39.84
43.28
44.54
43.93
42.09
39.65
37.11
34.79
32.83
31.22
29.85
28.50
26.98
25.12
22.83
20.09
16.99
13.68
10.42
7.58
5.54
4.57
4.66
5.43
6.20
6.18
4.85
2.16
-1.38
-4.92
-7.69
-9.24
-9.66
-9.45
-9.18
-9.22
-9.65
-10.29
-10.90
-11.37
-11.65
-11.69
-11.35
-10.45
-8.87
-6.74
-4.43
-2.45
-1.20
-0.80
-1.05
-1.58
-2.04
-2.26
-2.22
-2.00
-1.67
-1.23
-0.71
-0.27
-0.20
-0.82
-2.31
-4.46
-6.73
-8.35
-8.68
-7.40
-4.72
-1.28
2.08
4.56
5.77
5.70
4.79
3.66
2.88
2.76
3.28
4.14
4.94
5.35
5.20
4.50
3.38
2.01
0.55
-0.84
-2.02
-2.85
-3.25
-3.19
-2.74
-2.02
-1.30
-0.88
-1.12
-2.23
-4.18
-6.58
-8.79
-10.08
-9.98
-8.45
-5.92
-3.12
-0.78
0.70
1.32
1.44
1.56
2.09
3.19
4.75
6.49
8.06
9.14
9.47
8.93
7.46
5.19
2.37
-0.58
-3.18
-5.05
-5.95
-5.96
-5.31
-4.39
-3.53
-2.98
-2.87
-3.26
-4.12
-5.38
-6.81
-8.07
-8.77
-8.59
-7.47
-5.65
-3.62
-1.91
-0.85
-0.45
-0.35
-0.00
1.07
2.98
5.37
7.53
8.75
8.64
7.32
5.27
3.05
1.00
-0.81
-2.44
-3.81
-4.57
-4.27
-2.66
0.06
3.20
5.85
7.26
7.18
5.81
3.66
1.19
-1.28
-3.60
-5.63
-7.24
-8.19
-8.32
-7.66
-6.44
-5.08
-3.96
-3.29
-2.99
-2.68
-1.89
-0.23
2.35
5.57
8.80
11.32
12.55
12.25
10.57
7.94
4.89
1.84
-0.98
-3.48
-5.60
-7.26
-8.37
-8.84
-8.69
-8.04
-7.05
-5.93
-4.87
-4.10
-3.76
-3.90
-4.29
-4.52
-4.07
-2.60
-0.16
2.78
5.53
7.55
8.56
8.73
8.54
8.54
9.06
10.08
11.37
12.70
13.97
15.07
15.88
16.27
16.13
15.43
14.31
13.15
12.51
12.97
14.56
16.91
19.44
21.65
23.36
24.72
26.31
28.95
33.38
38.95
44.39
48.49
50.99
52.63
54.61
58.12
63.89
72.09
80.59
87.35
91.80
95.40
100.02
105.88
110.75
110.89
102.91
82.43
48.03
2.84
-45.67
-88.89
-120.90
-140.14
-148.87
-151.39
-156.40
-171.55
-200.95
-244.15
-298.49
-361.73
-432.14
-506.46
-557.09
-558.51
-500.82
-398.93
-280.86
-170.70
-81.29
-15.30
29.06
60.89
82.96
95.80
100.93
103.52
111.60
132.77
169.81
221.40
282.21
339.36
377.54
383.92
354.09
293.98
217.33
140.68
77.73
35.00
6.46
-16.19
-40.58
-68.19
-93.35
-108.34
-109.47
-99.46
-85.72
-75.73
-72.12
-72.16
-68.96
-55.57
-28.30
12.58
62.15
114.06
161.99
201.37
229.62
246.00
251.13
246.41
233.96
216.21
194.93
170.82
144.23
115.68
86.51
58.79
34.48
14.68
-1.43
-17.51
-38.97
-70.72
-114.85
-169.48
-228.92
-285.19
-330.05
-351.58
-342.19
-305.02
-254.10
-205.78
-169.43
-144.85
-126.99
-108.45
-86.15
-61.86
-39.40
-20.96
-4.97
11.69
32.71
60.79
97.51
142.90
194.68
248.18
296.83
333.27
351.04
346.71
321.16
279.49
228.87
175.93
125.58
81.39
46.44
23.07
11.62
9.12
9.78
7.07
-3.10
-20.25
-39.65
-55.23
-63.14
-63.33
-58.94
-53.60
-49.16
-45.28
-40.72
-35.08
-29.63
-26.51
-27.26
-31.81
-38.37
-44.58
-48.81
-50.81
-51.51
-52.21
-53.57
-55.22
-55.98
-54.57
-50.35
-43.64
-35.57
-27.48
-20.42
-14.64
-9.71
-4.84
0.65
6.84
13.17
18.58
21.96
22.53
20.13
15.30
9.06
2.73
-2.53
-5.93
-7.32
-7.18
-6.41
-6.02
-6.54
-7.80
-8.91
-8.61
-5.93
-0.69
6.23
13.22
18.55
21.03
20.58
18.18
15.51
14.40
16.28
21.85
30.67
41.02
49.79
53.05
47.30
30.96
5.61
-24.03
-51.66
-71.73
-81.56
-82.08
-76.88
-70.17
-64.84
-61.69
-59.89
-58.21
-56.03
-53.48
-50.97
-48.59
-45.95
-42.53
-38.25
-33.71
-30.06
-28.44
-29.45
-32.87
-37.68
-42.49
-45.85
-46.71
-44.73
-40.32
-34.55
-28.78
-24.07
-20.74
-18.21
-15.26
-10.66
-3.81
4.92
14.29
22.72
28.87
32.10
32.54
30.86
27.96
24.59
21.25
18.21
15.57
13.46
11.98
11.18
10.99
11.20
11.49
11.58
11.29
10.61
9.59
8.24
6.58
4.62
2.52
0.61
-0.75
-1.32
-1.22
-0.88
-0.89
-1.62
-2.93
-4.15
-4.28
-2.49
1.50
7.14
13.21
18.28
21.20
21.49
19.45
15.86
11.64
7.41
3.47
-0.18
-3.52
-6.44
-8.68
-10.01
-10.42
-10.13
-9.53
-8.91
-8.39
-7.89
-7.26
-6.41
-5.37
-4.23
-3.02
-1.70
-0.22
1.37
2.86
3.94
4.34
4.03
3.32
2.80
3.06
4.51
7.16
10.65
14.39
17.69
20.00
20.92
20.35
18.42
15.51
12.12
8.82
6.04
3.97
2.58
1.59
0.67
-0.42
-1.77
-3.28
-4.76
-6.09
-7.29
-8.51
-9.94
-11.59
-13.18
-14.22
-14.19
-12.85
-10.42
-7.51
-4.86
-2.93
-1.67
-0.57
1.09
3.77
7.48
11.74
15.84
19.17
21.33
22.21
21.81
20.13
17.21
13.24
8.60
3.95
-0.03
-2.86
-4.40
-4.92
-4.92
-4.87
-5.02
-5.36
-5.68
-5.79
-5.70
-5.68
-6.10
-7.23
-9.00
-10.97
-12.47
-12.94
-12.20
-10.51
-8.42
-6.45
-4.84
-3.41
-1.76
0.48
3.42
6.83
10.20
13.03
14.92
15.77
15.63
14.68
13.15
11.21
8.99
6.59
4.18
1.96
0.10
-1.24
-2.05
-2.49
-2.77
-3.09
-3.53
-4.00
-4.37
-4.61
-4.83
-5.28
-6.19
-7.58
-9.18
-10.47
-10.94
-10.31
-8.69
-6.53
-4.43
-2.80
-1.75
-0.98
0.04
1.79
4.47
7.83
11.32
14.19
15.79
15.75
14.08
11.10
7.30
3.26
-0.49
-3.56
-5.69
-6.84
-7.19
-7.00
-6.63
-6.28
-6.04
-5.79
-5.29
-4.36
-2.96
-1.33
0.04
0.53
-0.33
-2.60
-5.77
-8.89
-10.94
-11.19
-9.59
-6.71
-3.48
-0.74
1.16
2.42
3.67
5.55
8.48
12.41
16.90
21.22
24.53
26.13
25.63
23.10
19.05
14.29
9.68
5.86
3.18
1.70
1.24
1.49
2.11
2.71
2.92
2.48
1.36
-0.22
-1.85
-3.13
-3.93
-4.43
-5.09
-6.33
-8.29
-10.67
-12.77
-13.81
-13.26
-11.12
-7.93
-4.53
-1.70
0.19
1.31
2.22
3.59
5.76
8.68
11.84
14.51
15.96
15.75
13.80
10.39
6.12
1.72
-2.08
-4.70
-5.90
-5.82
-4.91
-3.73
-2.83
-2.51
-2.79
-3.47
-4.21
-4.66
-4.54
-3.75
-2.44
-1.05
-0.20
-0.45
-2.08
-4.84
-7.96
-10.44
-11.42
-10.58
-8.28
-5.36
-2.76
-1.08
-0.37
-0.14
0.32
1.62
3.94
7.02
10.26
12.93
14.46
14.51
13.03
10.22
6.53
2.57
-0.96
-3.43
-4.45
-4.01
-2.54
-0.75
0.62
1.05
0.42
-1.01
-2.72
-4.14
-4.88
-4.88
-4.36
-3.82
-3.76
-4.57
-6.25
-8.43
-10.43
-11.56
-11.39
-9.92
-7.62
-5.17
-3.16
-1.78
-0.78
0.36
2.20
4.97
8.51
12.31
15.72
18.16
19.30
19.06
17.59
15.17
12.17
9.02
6.11
3.77
2.22
1.43
1.21
1.20
1.03
0.45
-0.55
-1.73
-2.70
-3.10
-2.79
-2.01
-1.27
-1.24
-2.39
-4.78
-7.97
-11.13
-13.38
-14.10
-13.23
-11.17
-8.63
-6.23
-4.30
-2.76
-1.27
0.56
2.95
5.90
9.20
12.49
15.40
17.53
18.50
18.01
15.95
12.50
8.13
3.63
-0.21
-2.76
-3.75
-3.41
-2.29
-1.09
-0.39
-0.42
-1.04
-1.86
-2.42
-2.46
-2.00
-1.35
-1.01
-1.40
-2.70
-4.79
-7.27
-9.57
-11.09
-11.45
-10.53
-8.59
-6.09
-3.60
-1.54
-0.05
1.01
2.02
3.36
5.24
7.62
10.24
12.68
14.53
15.41
15.11
13.59
11.03
7.86
4.63
1.91
0.08
-0.74
-0.74
-0.32
0.09
0.15
-0.27
-1.09
-2.09
-2.98
-3.50
-3.56
-3.28
-2.99
-3.10
-3.94
-5.59
-7.81
-10.06
-11.74
-12.36
-11.74
-10.07
-7.79
-5.42
-3.35
-1.73
-0.38
1.00
2.71
4.89
7.45
10.12
12.55
14.40
15.36
15.12
13.43
10.17
5.51
0.01
-5.38
-9.57
-11.74
-11.75
-10.19
-8.24
-7.09
-7.55
-9.68
-12.95
-16.68
-20.51
-24.74
-30.16
-37.74
-47.98
-60.61
-74.50
-87.98
-99.35
-107.31
-111.22
-111.12
-107.49
-101.13
-92.89
-83.46
-73.21
-61.80
-48.03
-29.86
-5.12
27.41
66.75
108.96
147.78
176.87
192.60
195.89
191.63
185.88
182.51
181.26
178.62
170.52
155.29
134.44
111.32
88.69
67.19
45.80
23.76
2.30
-15.15
-24.38
-22.34
-8.46
15.29
45.24
76.67
104.49
123.93
131.50
125.88
108.17
81.52
50.44
20.56
-1.49
-8.69
4.66
40.13
93.18
153.35
207.45
244.70
260.77
258.84
247.09
234.09
225.03
220.62
218.63
216.56
213.50
210.13
207.40
205.21
201.83
194.52
180.85
159.86
132.57
101.61
70.27
41.28
15.95
-6.23
-27.14
-49.17
-74.27
-103.11
-135.00
-168.20
-200.96
-232.13
-261.79
-291.14
-321.91
-355.83
-394.35
-438.80
-490.29
-548.97
-612.80
-676.68
-732.70
-772.19
-788.71
-780.56
-751.47
-708.88
-660.88
-613.39
-568.96
-527.55
-488.23
-450.64
-415.20
-382.47
-352.11
-322.73
-292.50
-260.19
-225.92
-191.07
-157.76
-127.65
-101.26
-77.73
-55.32
-32.23
-7.50
18.65
44.99
69.89
92.24
111.90
129.81
147.51
166.38
187.08
209.37
232.25
254.55
275.44
294.81
313.25
332.06
352.95
377.65
407.15
440.79
475.67
506.87
528.62
536.07
526.98
502.43
466.38
424.21
381.10
340.85
305.62
276.11
252.01
232.31
215.37
199.14
181.52
160.99
137.14
110.81
83.80
58.38
36.53
19.32
6.76
-2.07
-8.55
-13.97
-19.15
-24.25
-28.92
-32.68
-35.16
-36.25
-36.13
-35.07
-33.31
-30.99
-28.28
-25.54
-23.38
-22.59
-23.80
-27.13
-31.88
-36.74
-40.13
-40.86
-38.53
-33.73
-27.69
-21.80
-16.95
-13.41
-10.74
-8.17
-5.03
-1.10
3.28
7.39
10.45
11.92
11.71
10.18
7.86
5.25
2.63
0.02
-2.64
-5.40
-8.12
-10.60
-12.63
-14.10
-15.04
-15.65
-16.13
-16.73
-17.63
-19.03
-21.03
-23.58
-26.39
-28.92
-30.44
-30.25
-27.98
-23.80
-18.35
-12.55
-7.17
-2.65
0.97
3.82
6.07
7.86
9.42
11.04
12.90
14.81
16.23
16.57
15.67
14.01
12.48
11.70
11.69
11.88
11.62
10.73
9.60
8.75
8.28
7.72
6.35
3.94
0.98
-1.56
-2.95
-3.31
-3.60
-4.98
-8.02
-12.34
-16.83
-20.19
-21.56
-20.78
-18.35
-15.14
-12.08
-9.79
-8.44
-7.73
-7.15
-6.22
-4.70
-2.65
-0.22
2.43
5.18
7.78
9.87
10.96
10.74
9.27
7.04
4.82
3.27
2.71
2.98
3.55
3.76
3.07
1.29
-1.36
-4.30
-6.87
-8.55
-9.30
-9.52
-9.89
-11.09
-13.49
-17.03
-21.27
-25.55
-29.11
-31.30
-31.68
-30.10
-26.81
-22.40
-17.59
-13.00
-8.92
-5.32
-2.00
1.23
4.42
7.54
10.56
13.52
16.46
19.21
21.22
21.75
20.06
15.91
9.79
2.89
-3.28
-7.51
-9.27
-8.89
-7.30
-5.59
-4.56
-4.44
-4.99
-5.68
-6.02
-5.79
-5.10
-4.26
-3.74
-3.94
-5.16
-7.49
-10.71
-14.34
-17.65
-19.83
-20.24
-18.56
-14.94
-9.97
-4.58
0.32
3.98
6.09
6.77
6.55
6.18
6.43
7.83
10.46
13.92
17.35
19.67
19.90
17.58
12.88
6.70
0.38
-4.80
-7.99
-9.13
-8.85
-8.16
-8.02
-8.94
-10.87
-13.28
-15.49
-16.93
-17.36
-16.86
-15.76
-14.48
-13.47
-13.15
-13.81
-15.50
-17.99
-20.65
-22.64
-23.17
-21.70
-18.19
-13.15
-7.43
-1.93
2.65
6.02
8.32
9.98
11.55
13.51
16.05
19.09
22.20
24.70
25.83
24.92
21.62
16.11
9.13
1.87
-4.41
-8.74
-10.86
-11.23
-10.84
-10.66
-11.19
-12.30
-13.31
-13.48
-12.36
-10.07
-7.20
-4.53
-2.73
-2.21
-3.06
-5.08
-7.81
-10.59
-12.63
-13.25
-12.01
-9.00
-4.69
0.07
4.45
7.77
9.74
10.44
10.31
10.03
10.33
11.82
14.66
18.50
22.38
25.04
25.32
22.56
16.99
9.63
2.08
-4.04
-7.66
-8.56
-7.42
-5.45
-3.91
-3.57
-4.53
-6.24
-7.85
-8.63
-8.34
-7.38
-6.58
-6.85
-8.76
-12.20
-16.42
-20.24
-22.49
-22.46
-20.14
-16.12
-11.39
-6.91
-3.33
-0.85
0.73
1.81
2.83
4.17
6.05
8.56
11.57
14.73
17.43
18.91
18.50
15.85
11.20
5.46
-0.07
-4.07
-5.74
-5.19
-3.32
-1.49
-0.80
-1.62
-3.42
-5.05
-5.47
-4.29
-2.14
-0.40
-0.46
-3.08
-7.88
-13.48
-18.07
-20.22
-19.40
-16.12
-11.62
-7.27
-3.98
-1.97
-0.79
0.27
1.84
4.21
7.29
10.78
14.33
17.53
19.92
20.93
19.97
16.67
11.14
4.14
-3.00
-8.83
-12.30
-13.19
-12.17
-10.39
-8.95
-8.39
-8.52
-8.70
-8.37
-7.45
-6.51
-6.51
-8.22
-11.73
-16.26
-20.36
-22.59
-22.04
-18.75
-13.65
-8.07
-3.22
0.37
2.87
4.96
7.37
10.47
14.19
18.08
21.66
24.50
26.34
26.93
25.96
23.12
18.32
11.86
4.65
-2.06
-7.09
-9.79
-10.28
-9.35
-7.97
-6.89
-6.34
-6.09
-5.85
-5.65
-5.97
-7.48
-10.55
-14.89
-19.43
-22.75
-23.63
-21.65
-17.31
-11.87
-6.74
-2.89
-0.61
0.63
1.74
3.57
6.59
10.71
15.43
20.03
23.85
26.40
27.33
26.45
23.65
19.06
13.10
6.61
0.67
-3.77
-6.23
-6.94
-6.65
-6.30
-6.50
-7.30
-8.32
-9.08
-9.52
-10.05
-11.30
-13.64
-16.79
-19.76
-21.33
-20.56
-17.35
-12.47
-7.23
-2.87
-0.05
1.32
1.93
2.66
4.18
6.70
10.04
13.74
17.24
20.08
21.80
22.00
20.34
16.67
11.24
4.80
-1.55
-6.61
-9.63
-10.53
-9.94
-8.89
-8.28
-8.52
-9.44
-10.55
-11.40
-11.99
-12.68
-13.97
-16.01
-18.39
-20.22
-20.52
-18.66
-14.76
-9.64
-4.46
-0.24
2.60
4.28
5.55
7.17
9.66
13.02
16.87
20.64
23.84
26.14
27.29
27.06
25.14
21.30
15.68
8.93
2.21
-3.22
-6.46
-7.40
-6.73
-5.60
-4.96
-5.21
-6.04
-6.83
-7.19
-7.29
-7.76
-9.27
-11.94
-15.11
-17.57
-18.17
-16.33
-12.46
-7.72
-3.53
-0.87
0.05
-0.10
-0.21
0.76
3.32
7.28
11.93
16.32
19.66
21.50
21.68
20.19
17.12
12.60
6.99
0.98
-4.45
-8.30
-9.99
-9.62
-7.95
-6.13
-5.08
-5.10
-5.80
-6.41
-6.32
-5.59
-4.97
-5.52
-7.89
-11.85
-16.23
-19.46
-20.24
-18.26
-14.25
-9.65
-5.84
-3.51
-2.46
-1.78
-0.45
2.22
6.27
11.23
16.38
21.05
24.73
26.98
27.49
25.98
22.42
17.14
10.99
5.14
0.79
-1.32
-1.18
0.34
1.90
2.18
0.55
-2.68
-6.36
-9.08
-9.95
-8.99
-7.19
-5.84
-5.78
-6.87
-8.04
-7.81
-5.17
-0.12
6.24
12.23
16.33
17.78
16.91
14.80
12.74
11.68
11.91
13.13
14.79
16.37
17.58
18.33
18.47
17.64
15.31
11.06
4.92
-2.40
-9.65
-15.45
-18.85
-19.67
-18.59
-16.76
-15.32
-14.97
-15.89
-17.83
-20.49
-23.78
-27.73
-32.19
-36.65
-40.10
-41.34
-39.51
-34.62
-27.70
-20.42
-14.48
-10.83
-9.32
-8.89
-8.05
-5.65
-1.34
4.41
10.56
15.97
19.82
21.72
21.65
19.78
16.40
11.93
7.00
2.47
-0.77
-2.09
-1.40
0.68
3.09
4.77
5.11
4.22
2.78
1.57
1.03
0.96
0.65
-0.67
-3.38
-7.12
-10.86
-13.34
-13.62
-11.50
-7.61
-3.15
0.73
3.33
4.69
5.46
6.47
8.35
11.23
14.84
18.68
22.25
25.20
27.24
28.08
27.42
25.03
21.03
15.91
10.53
5.85
2.53
0.70
-0.05
-0.41
-0.99
-1.96
-3.10
-4.01
-4.43
-4.60
-5.12
-6.64
-9.45
-13.10
-16.56
-18.60
-18.37
-15.80
-11.71
-7.38
-3.95
-1.91
-0.93
-0.10
1.47
4.21
7.88
11.82
15.30
17.95
19.68
20.53
20.43
19.05
16.04
11.34
5.47
-0.55
-5.51
-8.57
-9.61
-9.17
-8.22
-7.59
-7.60
-8.03
-8.35
-8.19
-7.69
-7.47
-8.25
-10.37
-13.41
-16.24
-17.56
-16.55
-13.29
-8.81
-4.54
-1.63
-0.41
-0.28
-0.17
0.94
3.47
7.19
11.38
15.32
18.49
20.70
21.89
21.91
20.47
17.34
12.57
6.79
1.06
-3.47
-6.03
-6.58
-5.80
-4.69
-4.02
-4.00
-4.28
-4.29
-3.77
-3.05
-2.90
-4.06
-6.63
-9.85
-12.34
-12.76
-10.52
-6.13
-0.98
3.30
5.60
5.79
4.74
3.75
4.04
6.14
9.86
14.49
19.21
23.40
26.76
29.12
30.23
29.69
27.03
22.05
15.17
7.50
0.49
-4.51
-6.79
-6.54
-4.66
-2.35
-0.75
-0.62
-2.36
-6.04
-11.39
-17.73
-24.02
-28.97
-31.50
-31.21
-28.57
-24.80
-21.43
-19.62
-19.72
-21.18
-22.87
-23.55
-22.34
-18.98
-13.95
-8.18
-2.87
0.87
2.25
0.87
-3.13
-9.16
-16.21
-22.91
-27.89
-30.07
-29.08
-25.42
-20.30
-15.27
-11.62
-10.09
-10.66
-12.87
-16.09
-19.73
-23.26
-26.01
-27.12
-25.76
-21.39
-14.26
-5.49
3.23
10.21
14.46
16.04
15.92
15.51
16.05
18.19
21.80
26.28
30.84
34.83
37.87
39.72
40.27
39.39
37.04
33.35
28.77
24.00
19.69
16.32
13.88
12.04
10.29
8.26
5.87
3.33
0.88
-1.47
-3.90
-6.68
-9.76
-12.55
-14.04
-13.22
-9.63
-3.85
2.63
7.88
10.38
9.66
6.51
2.53
-0.55
-1.56
-0.25
2.88
6.98
11.19
14.82
17.30
18.08
16.71
12.95
7.10
-0.02
-7.22
-13.39
-17.78
-20.25
-21.16
-21.04
-20.45
-19.82
-19.50
-19.81
-21.01
-23.07
-25.54
-27.49
-27.78
-25.54
-20.63
-13.76
-6.39
-0.04
4.23
6.27
6.80
6.93
7.67
9.51
12.41
15.90
19.46
22.64
25.09
26.47
26.36
24.46
20.77
15.79
10.49
6.00
3.17
2.23
2.69
3.63
4.02
3.19
0.92
-2.51
-6.58
-10.64
-14.17
-16.72
-17.98
-17.82
-16.35
-13.94
-11.18
-8.69
-6.85
-5.70
-4.93
-4.02
-2.46
0.13
3.86
8.58
13.78
18.58
21.85
22.53
19.95
14.26
6.51
-1.55
-8.06
-11.63
-11.84
-9.27
-5.23
-1.28
1.28
1.74
0.15
-2.78
-5.96
-8.26
-8.91
-7.69
-5.02
-1.71
1.27
3.25
4.01
3.83
3.29
3.02
3.46
4.81
7.06
10.07
13.62
17.37
20.76
23.01
23.29
21.03
16.21
9.57
2.40
-3.87
-8.23
-10.40
-10.86
-10.48
-10.10
-10.18
-10.76
-11.70
-12.82
-14.01
-15.12
-15.90
-15.97
-14.97
-12.87
-10.03
-7.18
-4.97
-3.73
-3.20
-2.66
-1.30
1.41
5.50
10.51
15.69
20.26
23.64
25.47
25.58
23.98
20.89
16.75
12.25
8.19
5.20
3.49
2.77
2.41
1.79
0.66
-0.67
-1.63
-1.70
-0.91
0.01
-0.02
-1.88
-5.63
-10.30
-14.26
-15.95
-14.65
-10.93
-6.34
-2.75
-1.39
-2.29
-4.34
-5.87
-5.45
-2.53
2.41
8.18
13.35
16.83
18.06
17.02
14.04
9.61
4.35
-1.07
-5.84
-9.23
-10.76
-10.49
-9.05
-7.47
-6.80
-7.60
-9.70
-12.29
-14.32
-15.19
-15.05
-14.79
-15.45
-17.60
-20.86
-23.99
-25.41
-24.00
-19.60
-13.09
-5.98
0.33
5.01
8.11
10.31
12.39
15.00
18.34
22.29
26.51
30.55
33.90
35.99
36.21
34.13
29.73
23.53
16.54
10.07
5.16
2.31
1.24
1.13
0.96
0.01
-1.90
-4.40
-6.77
-8.35
-8.90
-8.71
-8.53
-9.23
-11.39
-15.01
-19.41
-23.50
-26.10
-26.40
-24.28
-20.25
-15.24
-10.23
-5.85
-2.24
0.82
3.70
6.65
9.76
12.94
16.11
19.20
22.05
24.29
25.32
24.47
21.38
16.32
10.28
4.72
0.97
-0.33
0.45
2.15
3.39
3.13
1.19
-1.80
-4.74
-6.62
-6.95
-6.03
-4.74
-4.20
-5.34
-8.46
-13.16
-18.42
-23.01
-25.86
-26.39
-24.62
-21.05
-16.44
-11.55
-6.94
-2.90
0.51
3.45
6.19
9.06
12.35
16.21
20.50
24.73
28.12
29.71
28.74
24.96
18.91
11.90
5.63
1.51
0.12
0.93
2.59
3.59
2.99
0.79
-2.18
-4.80
-6.22
-6.27
-5.44
-4.60
-4.60
-5.98
-8.85
-12.87
-17.40
-21.58
-24.59
-25.76
-24.77
-21.75
-17.20
-11.86
-6.50
-1.68
2.31
5.49
8.18
10.81
13.81
17.43
21.61
25.84
29.31
31.06
30.29
26.74
20.84
13.74
6.92
1.74
-1.10
-1.84
-1.51
-1.49
-2.77
-5.55
-9.14
-12.32
-13.98
-13.71
-12.00
-10.04
-9.21
-10.34
-13.48
-17.75
-21.82
-24.37
-24.59
-22.44
-18.55
-13.85
-9.19
-5.03
-1.39
1.99
5.39
8.89
12.41
15.78
18.93
21.85
24.48
26.52
27.36
26.29
22.86
17.27
10.46
3.98
-0.69
-2.70
-2.27
-0.60
0.71
0.41
-1.75
-4.95
-7.75
-8.90
-8.05
-6.03
-4.44
-4.84
-7.95
-13.16
-18.85
-23.10
-24.54
-22.97
-19.18
-14.56
-10.30
-6.98
-4.40
-2.00
0.82
4.33
8.42
12.82
17.27
21.56
25.43
28.40
29.77
28.74
24.88
18.43
10.42
2.45
-3.94
-7.85
-9.42
-9.63
-9.80
-10.85
-12.90
-15.19
-16.60
-16.29
-14.24
-11.32
-8.80
-7.67
-8.08
-9.24
-9.76
-8.44
-4.78
0.77
7.13
13.14
18.12
22.13
25.74
29.66
34.24
39.40
44.71
49.75
54.31
58.44
62.26
65.74
68.55
70.25
70.61
70.00
69.47
70.41
73.97
80.48
89.26
98.90
108.03
115.91
122.70
129.17
136.11
143.77
151.88
160.10
168.51
177.67
188.14
199.75
211.13
219.94
223.59
220.17
208.91
190.22
165.21
135.12
101.07
63.92
24.25
-17.59
-61.44
-107.08
-153.92
-200.77
-245.94
-287.42
-323.20
-351.64
-371.87
-384.47
-392.05
-399.03
-410.37
-429.45
-456.19
-486.53
-513.75
-531.07
-534.02
-521.62
-495.70
-459.24
-414.91
-364.59
-309.87
-252.66
-195.24
-139.58
-86.51
-35.51
14.66
64.72
114.03
160.30
200.29
230.96
250.59
259.31
258.94
252.17
241.59
229.06
215.53
201.35
186.81
172.55
159.47
148.45
139.90
133.44
128.08
122.58
115.95
107.82
98.35
87.93
76.87
65.36
53.63
42.26
32.33
25.05
21.32
21.12
23.36
26.23
27.85
27.16
24.28
20.43
17.33
16.36
18.01
21.74
26.38
30.59
33.35
34.08
32.56
28.74
22.80
15.25
7.04
-0.45
-5.86
-8.31
-7.85
-5.47
-2.63
-0.70
-0.38
-1.65
-3.99
-6.88
-10.07
-13.53
-17.19
-20.65
-23.13
-23.76
-22.12
-18.50
-13.96
-9.88
-7.20
-6.06
-5.64
-4.61
-1.81
3.17
9.96
17.49
24.56
30.21
33.86
35.23
34.18
30.64
24.79
17.27
9.27
2.22
-2.66
-4.92
-5.00
-4.05
-3.37
-3.77
-5.23
-7.09
-8.58
-9.37
-9.95
-11.30
-14.25
-18.77
-23.69
-27.16
-27.56
-24.38
-18.57
-12.14
-7.04
-4.25
-3.34
-2.84
-1.16
2.63
8.36
15.08
21.62
27.13
31.28
34.00
35.20
34.53
31.53
26.07
18.67
10.65
3.67
-0.87
-2.49
-1.80
-0.27
0.55
-0.26
-2.65
-5.68
-8.22
-9.61
-10.12
-10.69
-12.43
-15.77
-20.22
-24.43
-26.89
-26.57
-23.39
-18.19
-12.23
-6.60
-1.78
2.37
6.37
10.69
15.53
20.74
26.04
31.13
35.75
39.56
42.10
42.76
41.05
36.82
30.58
23.49
17.09
12.73
11.13
12.00
14.19
16.11
16.35
14.27
10.18
5.19
0.69
-2.35
-3.79
-4.50
-5.81
-8.87
-13.86
-19.82
-24.96
-27.48
-26.54
-22.70
-17.75
-13.87
-12.54
-13.86
-16.54
-18.57
-18.24
-14.86
-9.00
-2.08
4.35
9.17
11.93
12.79
12.00
9.74
6.00
0.82
-5.31
-11.39
-16.05
-18.10
-17.03
-13.35
-8.44
-3.98
-1.27
-0.83
-2.47
-5.72
-10.31
-16.32
-23.87
-32.52
-40.93
-47.10
-49.13
-46.32
-39.68
-31.74
-25.42
-22.58
-23.07
-24.78
-24.83
-20.96
-12.68
-1.34
10.64
20.88
27.94
31.53
32.06
30.00
25.62
19.04
10.67
1.56
-6.65
-12.24
-14.14
-12.43
-8.40
-4.02
-1.15
-0.78
-2.72
-5.83
-8.78
-10.80
-11.98
-13.13
-15.07
-17.94
-20.86
-22.28
-20.71
-15.47
-7.21
2.37
11.22
17.83
21.76
23.67
24.82
26.37
28.92
32.36
36.09
39.44
41.97
43.52
44.11
43.79
42.52
40.26
37.11
33.40
29.66
26.38
23.80
21.69
19.51
16.64
12.85
8.44
4.20
0.94
-0.97
-1.92
-2.92
-5.08
-8.96
-14.24
-19.81
-24.30
-26.69
-26.72
-24.90
-22.11
-18.99
-15.61
-11.52
-6.17
0.57
8.12
15.31
20.87
23.97
24.62
23.49
21.57
19.60
17.81
16.01
13.85
11.23
8.42
5.92
4.11
2.98
2.03
0.45
-2.44
-6.88
-12.37
-17.77
-21.77
-23.53
-23.13
-21.58
-20.40
-20.83
-23.18
-26.57
-29.41
-30.12
-28.02
-23.53
-17.96
-12.79
-8.81
-5.86
-3.06
0.66
5.86
12.30
19.15
25.50
30.72
34.69
37.45
38.94
38.74
36.18
30.82
22.83
13.36
4.13
-3.11
-7.27
-8.40
-7.53
-6.17
-5.55
-6.16
-7.60
-8.99
-9.50
-8.82
-7.39
-6.07
-5.73
-6.73
-8.81
-11.22
-13.15
-14.11
-14.11
-13.53
-12.81
-12.11
-11.20
-9.55
-6.70
-2.54
2.49
7.62
12.07
15.50
18.19
20.84
24.10
28.04
31.96
34.46
34.10
30.09
22.89
14.21
6.41
1.60
0.71
3.14
7.02
10.15
10.85
8.69
4.48
-0.22
-3.83
-5.45
-5.05
-3.40
-1.69
-1.13
-2.57
-6.18
-11.39
-16.94
-21.27
-23.02
-21.58
-17.36
-11.62
-6.04
-1.99
-0.11
-0.02
-0.75
-1.11
-0.22
2.28
6.16
10.80
15.35
18.87
20.47
19.46
15.51
8.87
0.51
-8.01
-14.91
-18.84
-19.39
-17.29
-14.13
