1537526011.00
64.000000
-0.00
-0.00
-0.00
-0.00
-0.00
-0.00
-0.00
-0.00
-0.00
-0.00
0.00
0.01
0.01
-0.00
-0.03
-0.05
-0.05
0.00
0.13
0.36
0.66
1.01
1.37
1.72
2.06
2.40
2.79
3.24
3.80
4.42
5.06
5.66
6.20
6.68
7.15
7.68
8.31
9.14
10.09
11.04
11.88
12.56
13.14
13.76
14.65
15.96
17.91
20.32
22.90
25.38
27.58
29.57
31.68
34.32
37.81
42.54
48.15
54.10
59.83
64.97
69.58
74.14
79.34
85.71
93.76
103.00
112.62
121.73
129.77
136.75
143.30
150.75
157.77
166.64
177.95
191.79
206.97
220.57
228.25
225.36
208.53
176.87
132.76
80.05
23.07
-34.94
-92.44
-149.16
-205.23
-260.37
-313.74
-363.87
-409.83
-450.91
-486.50
-515.74
-537.23
-549.22
-549.96
-538.37
-514.21
-478.67
-433.88
-382.45
-327.02
-269.84
-212.63
-156.66
-102.95
-52.37
-5.90
35.58
71.43
101.35
125.50
144.38
158.69
169.15
176.37
180.75
182.57
182.07
179.51
175.23
169.65
163.18
156.15
148.81
141.30
133.69
126.02
118.33
110.69
103.16
95.80
88.68
81.83
75.25
68.95
62.95
57.25
51.86
46.78
42.03
37.59
33.45
29.61
26.07
22.81
19.83
17.11
14.67
12.48
10.54
8.83
7.35
6.07
4.97
4.05
3.27
2.62
2.09
1.65
1.30
1.01
0.79
0.61
0.48
0.37
0.29
0.23
0.17
0.13
0.10
0.09
0.10
0.11
0.12
0.10
0.02
-0.12
-0.29
-0.46
-0.57
-0.58
-0.50
-0.37
-0.25
-0.20
-0.27
-0.41
-0.55
-0.63
-0.60
-0.46
-0.30
-0.23
-0.36
-0.70
-1.16
-1.60
-1.83
-1.74
-1.37
-0.94
-0.73
-0.96
-1.73
-2.84
-3.91
-4.51
-4.37
-3.56
-2.53
-1.93
-2.28
-3.77
-6.02
-8.23
-9.53
-9.35
-7.84
-5.81
-4.41
-4.61
-6.72
-10.13
-13.56
-15.65
-15.57
-13.47
-10.43
-7.84
-6.96
-8.44
-12.35
-18.06
-24.26
-28.83
-28.94
-21.81
-5.84
17.94
45.40
70.16
85.93
88.98
79.68
62.38
42.52
24.84
11.44
1.91
-5.41
-11.63
-16.26
-17.47
-13.39
-3.50
10.56
25.35
37.29
44.10
45.71
43.88
41.00
38.62
36.79
34.35
30.00
23.74
17.01
11.93
10.13
11.98
16.55
22.48
28.59
34.28
39.79
45.31
50.20
52.97
51.63
44.54
31.54
13.95
-5.53
-23.13
-35.90
-43.09
-46.61
-50.02
-56.96
-69.04
-83.86
-99.16
-111.12
-116.22
-112.80
-101.68
-85.58
-70.21
-57.48
-48.99
-45.12
-44.04
-42.71
-38.05
-28.38
-13.84
3.48
20.59
33.73
39.81
37.55
27.41
11.40
-7.49
-25.45
-38.74
-44.52
-42.24
-33.61
-21.94
-11.44
-4.59
-4.10
-10.80
-23.41
-39.08
-54.91
-68.59
-78.57
-84.01
-84.42
-79.75
-70.03
-55.82
-38.38
-19.57
-1.21
15.43
29.89
42.35
53.05
62.19
69.67
75.22
78.62
80.10
80.31
80.08
79.98
79.94
79.43
77.72
74.28
68.96
62.22
54.81
47.57
41.17
35.82
31.47
27.83
24.57
21.41
18.31
15.38
12.87
10.95
9.54
8.33
6.90
4.87
2.12
-1.14
-4.55
-7.70
-10.33
-12.40
-13.86
-14.69
-14.77
-14.06
-12.73
-11.19
-9.99
-9.59
-10.06
-11.01
-11.79
-11.72
-10.43
-7.95
-4.68
-1.10
2.33
5.34
7.81
9.67
10.83
11.19
10.62
9.08
6.67
3.62
0.32
-2.81
-5.37
-7.15
-8.21
-8.80
-9.25
-9.80
-10.52
-11.32
-12.08
-12.82
-13.69
-14.94
-16.76
-19.18
-21.95
-24.65
-26.66
-27.42
-26.46
-23.63
-19.17
-13.60
-7.64
-1.87
3.35
7.90
11.74
14.72
16.59
17.15
16.43
14.80
12.81
10.93
9.37
8.04
6.69
5.20
3.62
2.16
1.01
0.29
-0.03
-0.02
0.18
0.37
0.25
-0.56
-2.28
-4.79
-7.58
-9.93
-11.23
-11.30
-10.46
-9.39
-8.76
-9.07
-10.44
-12.74
-15.67
-18.82
-21.64
-23.51
-23.90
-22.58
-19.74
-15.99
-12.09
-8.60
-5.74
-3.40
-1.36
0.47
2.05
3.30
4.27
5.15
6.14
7.32
8.49
9.34
9.57
9.15
8.25
7.13
6.03
4.99
3.98
2.93
1.85
0.85
0.09
-0.27
-0.10
0.65
1.94
3.61
5.38
6.93
7.98
8.38
8.19
7.58
6.74
5.78
4.64
3.13
0.98
-2.00
-5.81
-10.18
-14.56
-18.27
-20.69
-21.42
-20.48
-18.27
-15.38
-12.44
-9.84
-7.69
-5.86
-4.12
-2.27
-0.34
1.53
3.08
4.14
4.69
4.84
4.83
4.85
5.00
5.27
5.54
5.71
5.78
5.86
6.18
6.90
8.04
9.39
10.53
11.04
10.70
9.66
8.36
7.31
6.78
6.68
6.56
5.92
4.43
2.13
-0.67
-3.58
-6.23
-8.44
-10.11
-11.27
-12.05
-12.68
-13.50
-14.83
-16.87
-19.52
-22.34
-24.68
-25.93
-25.69
-23.93
-20.90
-17.05
-12.88
-8.85
-5.29
-2.38
-0.11
1.64
3.07
4.31
5.40
6.29
6.92
7.29
7.46
7.60
7.85
8.28
8.94
9.79
10.81
11.94
13.11
14.19
15.09
15.76
16.25
16.61
16.84
16.84
16.39
15.34
13.72
11.80
9.90
8.25
6.74
5.01
2.70
-0.26
-3.50
-6.45
-8.62
-10.00
-11.04
-12.36
-14.37
-17.14
-20.41
-23.97
-27.79
-31.96
-36.38
-40.60
-43.85
-45.41
-45.01
-42.94
-39.91
-36.64
-33.56
-30.83
-28.49
-26.62
-25.38
-24.76
-24.50
-24.14
-23.16
-21.36
-18.79
-15.70
-12.23
-8.22
-3.32
2.78
10.05
18.07
26.15
33.63
40.11
45.43
49.57
52.45
53.95
53.89
52.31
49.45
45.76
41.76
37.87
34.27
30.99
27.95
25.06
22.26
19.51
16.79
14.02
11.04
7.61
3.39
-1.88
-8.25
-15.40
-22.68
-29.27
-34.42
-37.70
-39.10
-38.99
-37.85
-36.14
-34.15
-31.96
-29.54
-26.80
-23.69
-20.23
-16.53
-12.72
-8.98
-5.43
-2.10
1.04
4.00
6.69
8.87
10.24
10.68
10.34
9.81
9.92
11.39
14.56
19.16
24.44
29.49
33.60
36.45
38.10
38.73
38.43
37.14
34.83
31.68
28.17
24.94
22.44
20.63
18.90
16.34
12.23
6.51
-0.14
-6.61
-11.80
-15.13
-16.68
-16.89
-16.25
-14.94
-12.87
-9.94
-6.21
-2.05
2.05
5.76
9.07
12.20
15.40
18.67
21.76
24.21
25.71
26.16
25.75
24.85
23.79
22.84
22.09
21.55
21.17
20.84
20.47
19.89
19.02
17.78
16.17
14.27
12.17
10.01
7.85
5.76
3.75
1.80
-0.12
-1.99
-3.77
-5.43
-6.95
-8.51
-10.36
-12.82
-16.07
-20.02
-24.31
-28.37
-31.55
-33.30
-33.30
-31.48
-28.04
-23.43
-18.22
-12.96
-8.07
-3.71
0.17
3.71
6.99
9.97
12.53
14.61
16.26
17.66
18.89
19.89
20.37
20.05
18.92
17.28
15.70
14.74
14.64
15.17
15.85
16.22
16.07
15.53
14.85
14.18
13.39
12.17
10.26
7.65
4.61
1.55
-1.23
-3.60
-5.61
-7.38
-8.99
-10.55
-12.23
-14.29
-16.93
-20.13
-23.54
-26.58
-28.57
-29.09
-28.02
-25.56
-22.03
-17.79
-13.13
-8.27
-3.45
1.15
5.31
8.89
11.78
13.96
15.48
16.47
17.15
17.69
18.25
18.84
19.32
19.51
19.27
18.54
17.49
16.40
15.54
15.10
15.04
15.16
15.16
14.82
14.08
12.97
11.58
9.93
7.99
5.68
3.06
0.30
-2.31
-4.52
-6.28
-7.73
-9.22
-11.16
-13.88
-17.44
-21.59
-25.77
-29.29
-31.48
-31.93
-30.56
-27.61
-23.51
-18.81
-14.05
-9.61
-5.71
-2.38
0.52
3.19
5.77
8.25
10.47
12.16
13.14
13.40
13.11
12.60
12.20
12.17
12.61
13.50
14.71
16.06
17.33
18.31
18.77
18.60
17.77
16.37
14.63
12.78
10.96
9.20
7.44
5.61
3.66
1.65
-0.35
-2.24
-4.00
-5.60
-7.07
-8.52
-10.08
-11.96
-14.32
-17.20
-20.40
-23.44
-25.72
-26.69
-26.13
-24.17
-21.25
-17.89
-14.51
-11.30
-8.21
-5.12
-1.99
1.03
3.63
5.55
6.64
7.04
6.99
6.77
6.49
6.13
5.62
5.03
4.61
4.75
5.77
7.79
10.64
13.96
17.32
20.40
22.89
24.53
25.03
24.16
21.86
18.34
14.10
9.79
5.99
3.00
0.80
-0.93
-2.65
-4.71
-7.29
-10.33
-13.65
-17.03
-20.33
-23.38
-26.00
-27.87
-28.61
-27.91
-25.68
-22.18
-17.89
-13.39
-9.08
-5.12
-1.44
2.08
5.47
8.65
11.44
13.65
15.18
16.00
16.13
15.63
14.61
13.26
11.86
10.63
9.76
9.24
8.98
8.82
8.64
8.40
8.05
7.50
6.53
4.97
2.73
-0.08
-3.17
-6.14
-8.68
-10.58
-11.85
-12.58
-13.03
-13.53
-14.44
-16.12
-18.69
-22.04
-25.69
-29.00
-31.30
-32.12
-31.30
-29.00
-25.58
-21.48
-17.05
-12.50
-7.94
-3.43
0.96
5.07
8.76
11.89
14.41
16.35
17.79
18.74
19.22
19.18
18.71
17.96
17.20
16.65
16.47
16.65
17.06
17.42
17.47
16.99
15.84
14.13
12.07
9.96
8.07
6.51
5.23
4.01
2.63
0.90
-1.20
-3.54
-5.90
-7.99
-9.65
-10.89
-12.02
-13.49
-15.80
-19.17
-23.39
-27.84
-31.67
-34.16
-34.91
-33.99
-31.76
-28.69
-25.08
-21.11
-16.80
-12.17
-7.33
-2.50
2.02
5.97
9.10
11.33
12.68
13.34
13.60
13.71
13.87
14.06
14.12
13.88
13.24
12.34
11.46
10.93
10.89
11.27
11.74
11.91
11.52
10.48
9.01
7.43
6.08
5.13
4.54
4.08
3.47
2.45
0.91
-1.04
-3.14
-5.07
-6.61
-7.71
-8.58
-9.63
-11.24
-13.66
-16.89
-20.60
-24.31
-27.51
-29.76
-30.83
-30.71
-29.49
-27.34
-24.40
-20.73
-16.41
-11.57
-6.43
-1.34
3.34
7.34
10.55
13.02
14.89
16.30
17.28
17.82
17.79
17.13
15.91
14.44
13.26
13.05
14.33
17.24
21.36
25.77
29.43
31.47
31.55
29.89
27.08
23.82
20.66
17.90
15.62
13.68
11.80
9.69
7.12
4.12
0.97
-1.93
-4.25
-5.98
-7.35
-8.76
-10.54
-12.83
-15.65
-18.95
-22.68
-26.79
-31.00
-34.78
-37.47
-38.49
-37.59
-34.96
-31.05
-26.45
-21.61
-16.89
-12.52
-8.64
-5.28
-2.31
0.52
3.49
6.64
9.75
12.33
13.86
14.08
13.15
11.55
9.92
8.76
8.26
8.37
8.83
9.29
9.47
9.13
8.15
6.57
4.57
2.46
0.57
-0.84
-1.70
-2.14
-2.46
-2.95
-3.82
-5.18
-7.00
-9.25
-11.86
-14.81
-18.08
-21.69
-25.69
-30.14
-35.04
-40.22
-45.37
-50.03
-53.69
-55.88
-56.27
-54.67
-50.98
-45.24
-37.61
-28.39
-18.10
-7.35
3.20
13.04
21.78
29.30
35.62
40.86
45.11
48.32
50.32
50.85
49.76
47.20
43.68
39.97
36.84
34.78
33.78
33.41
33.07
32.25
30.78
28.77
26.51
24.28
22.26
20.48
18.92
17.48
16.06
14.49
12.63
10.39
7.84
5.20
2.71
0.59
-1.13
-2.59
-4.05
-5.83
-8.14
-11.08
-14.56
-18.32
-21.94
-24.92
-26.81
-27.29
-26.30
-23.95
-20.55
-16.47
-12.11
-7.82
-3.87
-0.41
2.58
5.20
7.62
9.88
11.82
13.17
13.67
13.25
12.16
10.82
9.64
8.80
8.23
7.78
7.40
7.24
7.49
8.23
9.26
10.18
10.60
10.42
9.78
9.04
8.41
7.94
7.46
6.79
5.83
4.58
3.08
1.38
-0.48
-2.40
-4.20
-5.70
-6.87
-7.81
-8.84
-10.30
-12.46
-15.39
-18.95
-22.76
-26.27
-28.89
-30.08
-29.56
-27.42
-24.06
-20.11
-16.12
-12.40
-8.95
-5.57
-2.05
1.70
5.51
9.12
12.20
14.55
16.09
16.93
17.25
17.25
17.09
16.79
16.33
15.66
14.80
13.94
13.28
13.02
13.19
13.65
14.11
14.31
14.07
13.40
12.41
11.30
10.24
9.31
8.51
7.72
6.79
5.51
3.78
1.61
-0.79
-3.09
-5.00
-6.44
-7.59
-8.89
-10.81
-13.66
-17.41
-21.67
-25.87
-29.35
-31.67
-32.62
-32.29
-30.93
-28.81
-26.16
-23.01
-19.30
-14.95
-9.95
-4.53
0.89
5.86
10.04
13.31
15.76
17.60
19.01
20.07
20.78
21.10
21.04
20.63
19.88
18.79
17.37
15.71
14.03
12.59
11.61
11.11
10.93
10.79
10.45
9.87
9.16
8.57
8.23
8.09
7.93
7.46
6.51
5.08
3.29
1.31
-0.75
-2.85
-4.93
-6.87
-8.49
-9.60
-10.24
-10.67
-11.40
-12.91
-15.46
-18.92
-22.72
-26.09
-28.25
-28.75
-27.49
-24.81
-21.23
-17.31
-13.43
-9.74
-6.21
-2.77
0.55
3.57
6.02
7.63
8.34
8.27
7.74
7.10
6.63
6.46
6.61
7.02
7.65
8.47
9.33
9.96
10.01
9.19
7.47
5.19
2.96
1.47
1.11
1.83
3.14
4.37
4.99
4.82
4.02
2.93
1.86
0.94
0.18
-0.48
-1.07
-1.61
-2.15
-2.90
-4.14
-6.18
-9.14
-12.83
-16.77
-20.29
-22.79
-23.84
-23.37
-21.59
-18.88
-15.63
-12.09
-8.35
-4.43
-0.34
3.79
7.67
10.98
13.44
14.99
15.74
15.93
15.84
15.58
15.18
14.59
13.77
12.80
11.85
11.13
10.77
10.77
10.99
11.20
11.18
10.80
10.02
8.90
7.62
6.35
5.28
4.49
3.91
3.35
2.61
1.53
0.18
-1.21
-2.38
-3.20
-3.75
-4.37
-5.45
-7.29
-9.96
-13.26
-16.80
-20.17
-22.99
-25.00
-26.08
-26.15
-25.20
-23.27
-20.48
-17.03
-13.25
-9.44
-5.88
-2.71
0.12
2.71
5.14
7.39
9.31
10.75
11.62
11.97
11.94
11.65
11.17
10.47
9.55
8.49
7.52
6.89
6.75
7.02
7.46
7.74
7.61
7.04
6.22
5.44
4.91
4.65
4.49
4.09
3.19
1.70
-0.25
-2.36
-4.29
-5.80
-6.85
-7.60
-8.36
-9.48
-11.26
-13.89
-17.29
-21.17
-25.04
-28.34
-30.58
-31.46
-30.98
-29.35
-26.90
-23.91
-20.57
-16.94
-13.05
-8.95
-4.74
-0.65
3.10
6.30
8.88
10.83
12.26
13.26
13.93
14.33
14.50
14.44
14.18
13.72
13.12
12.50
11.99
11.71
11.69
11.87
12.04
12.01
11.67
11.03
10.20
9.38
8.68
8.07
7.46
6.64
5.47
3.86
1.89
-0.25
-2.28
-4.02
-5.41
-6.59
-7.90
-9.69
-12.22
-15.54
-19.39
-23.33
-26.86
-29.58
-31.22
-31.71
-31.08
-29.43
-26.88
-23.52
-19.49
-14.96
-10.17
-5.37
-0.84
3.19
6.60
9.37
11.56
13.32
14.76
15.97
16.94
17.64
18.04
18.14
17.96
17.59
17.08
16.47
15.77
15.04
14.32
13.70
13.19
12.80
12.42
11.96
11.31
10.44
9.39
8.23
7.03
5.83
4.58
3.18
1.53
-0.45
-2.71
-5.07
-7.29
-9.15
-10.61
-11.86
-13.24
-15.11
-17.69
-20.89
-24.40
-27.79
-30.58
-32.37
-32.87
-31.85
-29.28
-25.32
-20.39
-15.07
-9.95
-5.37
-1.39
2.16
5.48
8.65
11.52
13.82
15.32
15.96
15.89
15.36
14.66
14.01
13.51
13.26
13.30
13.65
14.25
14.93
15.49
15.77
15.74
15.48
15.14
14.86
14.64
14.39
13.99
13.31
12.31
10.98
9.38
7.57
5.70
3.91
2.34
1.02
-0.15
-1.38
-2.93
-4.98
-7.61
-10.79
-14.37
-18.10
-21.60
-24.34
-25.81
-25.65
-23.83
-20.67
-16.66
-12.34
-8.03
-3.89
0.01
3.62
6.79
9.40
11.38
12.81
13.78
14.36
14.53
14.25
13.51
12.47
11.36
10.43
9.81
9.50
9.43
9.52
9.73
10.04
10.33
10.44
10.19
9.52
8.54
7.48
6.58
5.89
5.35
4.71
3.78
2.48
0.85
-0.94
-2.72
-4.35
-5.81
-7.16
-8.55
-10.19
-12.27
-14.89
-17.96
-21.23
-24.35
-26.96
-28.80
-29.68
-29.49
-28.13
-25.66
-22.23
-18.17
-13.86
-9.61
-5.57
-1.77
1.79
5.07
7.94
10.30
12.10
13.39
14.26
14.73
14.80
14.46
13.79
13.01
12.31
11.86
11.66
11.59
11.51
11.35
11.07
10.72
10.35
9.99
9.64
9.25
8.73
7.98
6.96
5.73
4.48
3.39
2.50
1.67
0.63
-0.84
-2.75
-4.87
-6.92
-8.71
-10.29
-11.96
-14.04
-16.73
-19.99
-23.54
-26.94
-29.69
-31.32
-31.53
-30.21
-27.52
-23.80
-19.43
-14.73
-9.88
-4.92
0.08
4.92
9.31
12.94
15.60
17.33
18.31
18.82
19.07
19.26
19.52
20.04
20.95
22.21
23.50
24.17
23.41
20.60
15.56
8.70
0.95
-6.62
-13.08
-17.74
-20.12
-19.76
-16.17
-8.99
1.63
14.64
28.03
39.26
46.10
47.48
43.96
37.55
30.84
25.95
23.68
23.32
23.04
20.87
15.44
6.58
-4.73
-16.75
-27.50
-35.35
-39.31
-39.29
-36.13
-31.47
-27.32
-25.45
-26.74
-30.84
-36.31
-41.17
-43.79
-43.39
-40.27
-35.34
-29.61
-23.79
-18.18
-12.91
-8.15
-4.29
-1.72
-0.73
-1.29
-3.08
-5.60
-8.33
-10.81
-12.76
-14.16
-15.20
-16.13
-17.12
-17.90
-17.80
-15.96
-11.79
-5.39
2.30
9.90
16.13
20.42
23.01
24.68
26.11
27.50
28.41
28.14
26.23
22.65
17.82
12.33
6.67
1.18
-3.85
-8.03
-10.85
-11.93
-11.18
-8.94
-5.76
-2.23
1.30
4.75
8.10
11.30
14.19
16.58
18.35
19.46
19.84
19.36
17.79
15.04
11.35
7.39
4.02
2.00
1.61
2.56
4.19
5.80
6.93
7.46
7.49
7.12
6.40
5.33
3.93
2.33
0.73
-0.66
-1.64
-2.09
-1.92
-1.11
0.26
1.89
3.33
3.99
3.35
1.11
-2.66
-7.54
-12.83
-17.68
-21.29
-23.04
-22.64
-20.24
-16.42
-12.06
-8.17
-5.54
-4.49
-4.85
-6.13
-7.85
-9.83
-12.22
-15.30
-19.11
-23.29
-27.09
-29.68
-30.55
-29.60
-27.11
-23.47
-18.98
-13.81
-8.31
-3.20
0.53
1.98
0.70
-2.98
-8.32
-14.99
-23.54
-35.11
-50.24
-67.63
-83.78
-93.97
-94.27
-83.41
-63.66
-39.97
-17.87
-1.22
8.88
13.66
15.13
14.83
13.33
10.67
7.18
4.02
3.02
5.84
13.06
24.24
38.85
57.00
79.52
106.91
138.48
171.57
201.48
222.32
228.74
218.73
194.41
161.07
124.69
90.15
60.31
35.92
15.70
-2.73
-20.57
-37.84
-54.16
-70.52
-88.92
-110.57
-134.77
-158.97
-179.57
-190.90
-187.06
-163.29
-118.37
-54.25
25.44
116.15
211.91
293.40
337.02
328.45
275.57
202.12
131.73
77.74
41.81
17.44
-4.54
-26.69
-48.44
-64.55
-70.60
-65.81
-53.12
-37.61
-24.88
-19.43
-22.54
-34.63
-54.79
-82.67
-117.56
-156.25
-192.26
-217.26
-223.84
-207.27
-167.82
-110.62
-45.52
15.70
62.89
90.14
96.73
86.79
68.25
50.39
41.39
45.49
61.99
86.08
110.82
129.48
137.51
133.94
121.12
103.54
85.69
70.49
58.85
50.02
42.57
35.27
27.47
19.14
10.84
3.36
-2.54
-6.45
-8.91
-11.82
-18.47
-32.60
-56.71
-90.35
-129.51
-167.57
-197.54
-214.43
-216.73
-206.31
-187.08
-163.22
-137.97
-113.25
-89.89
-68.03
-47.24
-26.53
-4.37
20.82
49.95
82.53
116.43
148.41
174.88
192.89
200.97
199.49
190.66
178.04
165.39
155.47
148.66
142.36
131.40
109.95
74.33
25.29
-31.27
-86.17
-130.24
-157.90
-168.78
-167.19
-159.54
-151.57
-146.61
-145.41
-146.99
-149.77
-152.20
-153.00
-151.19
-146.11
-137.47
-125.37
-110.05
-91.77
-70.77
-47.57
-23.11
1.41
25.03
47.50
69.41
91.89
115.80
141.02
166.18
188.77
205.90
215.18
215.77
208.84
197.41
185.28
175.25
167.70
159.95
146.87
122.64
82.91
26.81
-41.93
-115.32
-182.51
-232.18
-255.32
-247.62
-210.94
-153.17
-86.28
-23.07
26.28
56.69
68.92
68.41
62.96
60.07
65.02
80.01
104.40
135.43
169.30
201.84
229.07
247.84
256.67
256.21
249.11
238.94
228.68
219.38
209.62
196.15
175.33
144.56
103.33
53.47
-1.18
-55.45
-103.71
-140.83
-163.27
-169.91
-162.33
-144.29
-120.67
-96.18
-74.45
-57.75
-47.06
-42.23
-42.13
-45.02
-48.88
-52.05
-53.64
-53.73
-53.06
-52.52
-52.70
-53.59
-54.66
-55.15
-54.56
-53.23
-52.25
-53.37
-58.38
-68.25
-82.29
-97.83
-110.85
-117.36
-115.03
-103.90
-86.33
-66.13
-47.39
-33.56
-27.02
-28.68
-37.92
-52.91
-70.69
-88.41
-105.19
-123.43
-148.16
-184.21
-232.50
-287.67
-339.25
-373.99
-381.10
-357.12
-307.69
-245.20
-183.93
-135.13
-104.56
-94.20
-101.66
-122.29
-151.54
-186.39
-225.09
-265.99
-306.76
-344.67
-379.79
-410.91
-435.41
-450.29
-453.80
-445.64
-426.66
-397.57
-359.18
-315.74
-269.31
-219.06
-163.14
-100.94
-33.60
36.84
109.75
205.05
322.47
444.21
547.90
620.99
663.32
680.91
680.38
668.51
650.65
626.15
593.65
554.80
513.82
476.24
449.08
430.10
414.88
397.80
370.36
327.37
271.78
212.33
159.42
119.90
93.68
77.04
65.45
51.90
29.22
-0.85
-36.05
-73.62
-112.07
-152.85
-196.97
-243.33
-274.44
-278.55
-254.40
-211.90
-162.88
-114.86
-72.11
-44.56
-26.50
-14.33
-8.97
-11.93
-24.83
-48.73
-76.27
-103.92
-127.49
-140.64
-139.40
-124.13
-97.90
-66.07
-34.43
-7.94
9.00
15.22
13.48
6.59
-3.82
-16.30
-29.42
-41.40
-50.68
-57.69
-63.71
-70.06
-78.93
-92.10
-109.24
-127.80
-143.75
-153.27
-154.88
-149.27
-138.50
-125.56
-112.65
-99.66
-83.76
-60.32
-25.13
22.47
78.09
132.60
174.48
194.35
188.75
161.42
121.54
79.82
44.48
19.37
4.30
-3.01
-4.91
-2.85
2.40
9.99
18.51
26.30
31.95
34.87
35.20
33.59
30.99
28.18
25.80
24.07
22.93
22.06
21.17
20.21
19.53
19.76
21.43
24.71
29.20
34.03
38.18
40.84
41.71
41.05
39.53
37.94
36.86
36.57
36.91
37.44
37.52
36.67
34.67
31.68
28.19
24.77
21.93
19.84
18.40
17.17
15.59
13.10
9.25
3.90
-2.82
-10.46
-18.37
-25.77
-31.94
-36.20
-38.04
-37.12
-33.39
-27.24
-19.49
-11.24
-3.63
2.51
6.83
9.42
10.71
11.21
11.37
11.53
11.87
12.46
13.24
14.01
14.47
14.38
13.59
12.18
10.46
8.91
7.98
8.04
9.08
10.79
12.54
13.66
13.64
12.36
10.06
7.17
4.12
1.14
-1.77
-4.70
-7.67
-10.64
-13.51
-16.31
-19.20
-22.34
-25.76
-29.16
-31.88
-33.10
-32.16
-28.80
-23.26
-16.19
-8.41
-0.68
6.49
12.80
18.17
22.59
26.08
28.66
30.40
31.41
31.89
32.02
31.94
31.62
31.03
30.10
28.82
27.36
25.91
24.67
23.74
23.07
22.49
21.79
20.77
19.34
17.48
15.25
12.83
10.37
8.00
5.71
3.38
0.82
-2.24
-5.99
-10.51
-15.77
-21.51
-27.23
-32.27
-35.89
-37.42
-36.48
-33.09
-27.62
-20.72
-13.10
-5.41
1.89
8.47
14.11
18.69
22.14
24.51
25.94
26.62
26.75
26.46
25.84
24.99
23.98
23.01
22.22
21.72
21.50
21.45
21.40
21.22
20.83
20.20
19.32
18.13
16.55
14.54
12.14
9.41
6.52
3.61
0.76
-2.05
-4.92
-8.03
-11.58
-15.72
-20.48
-25.72
-31.01
-35.71
-39.06
-40.32
-39.02
-35.12
-29.01
-21.46
-13.34
-5.42
1.79
8.07
13.44
18.02
21.89
25.10
27.64
29.45
30.50
30.80
30.41
29.45
28.05
26.41
24.72
23.20
22.12
21.71
22.11
23.22
24.60
25.53
25.21
23.10
19.12
13.75
7.86
2.37
-2.03
-5.14
-7.15
-8.51
-9.73
-11.18
-13.08
-15.57
-18.76
-22.71
-27.36
-32.33
-37.00
-40.56
-42.22
-41.48
-38.28
-32.99
-26.21
-18.60
-10.74
-3.06
4.06
10.28
15.32
18.99
21.31
22.52
23.00
23.11
23.12
23.16
23.22
23.26
23.34
23.58
24.06
24.77
25.49
25.95
25.88
25.21
24.08
22.71
21.25
19.76
18.14
16.33
14.31
12.15
9.91
7.64
5.28
2.74
-0.02
-3.01
-6.20
-9.61
-13.34
-17.49
-22.11
-27.04
-31.86
-35.99
-38.75
-39.58
-38.20
-34.67
-29.40
-23.04
-16.27
-9.70
-3.77
1.28
5.36
8.49
10.75
12.28
13.30
14.02
14.61
15.17
15.70
16.12
16.38
16.46
16.38
16.22
16.01
15.82
15.68
15.64
15.73
15.96
16.23
16.36
16.12
15.32
13.88
11.88
9.52
7.00
4.49
2.13
-0.03
-2.00
-3.81
-5.62
-7.64
-10.16
-13.44
-17.55
-22.35
-27.41
-32.07
-35.58
-37.23
-36.53
-33.37
-28.09
-21.49
-14.60
-8.43
-3.60
-0.25
1.93
3.42
4.65
5.77
6.76
7.49
7.90
8.01
7.92
7.70
7.34
6.86
6.29
5.78
5.55
5.78
6.50
7.62
8.87
9.90
10.41
10.23
9.38
8.03
6.40
4.66
2.84
0.87
-1.28
-3.55
-5.75
-7.66
-9.23
-10.58
-12.07
-14.06
-16.80
-20.23
-24.02
-27.59
-30.28
-31.54
-31.01
-28.62
-24.55
-19.22
-13.16
-6.88
-0.82
4.72
9.51
13.47
16.56
18.84
20.38
21.33
21.78
21.77
21.26
20.20
18.67
16.85
15.09
13.74
13.07
13.08
13.58
14.20
14.56
14.46
13.87
12.94
11.82
10.67
9.49
8.24
6.82
5.18
3.32
1.33
-0.72
-2.75
-4.75
-6.79
-8.94
-11.28
-13.89
-16.81
-20.03
-23.45
-26.80
-29.62
-31.37
-31.54
-29.83
-26.31
-21.36
-15.60
-9.70
-4.22
0.50
4.31
7.21
9.27
10.56
11.18
11.26
10.94
10.45
9.95
9.60
9.43
9.38
9.33
9.17
8.86
8.50
8.25
8.23
8.48
8.87
9.16
9.13
8.62
7.69
6.46
5.11
3.76
2.44
1.07
-0.40
-2.05
-3.88
-5.86
-7.92
-10.00
-12.06
-14.13
-16.34
-18.87
-21.80
-24.99
-28.04
-30.32
-31.20
-30.29
-27.56
-23.37
-18.28
-12.89
-7.67
-2.94
1.15
4.46
6.98
8.76
9.94
10.78
11.47
12.12
12.66
12.93
12.76
12.13
11.16
10.12
9.25
8.75
8.67
8.96
9.52
10.20
10.88
11.39
11.60
11.38
10.70
9.66
8.38
7.01
5.55
3.91
1.94
-0.46
-3.15
-5.89
-8.32
-10.24
-11.65
-12.88
-14.39
-16.64
-19.83
-23.78
-28.03
-31.87
-34.61
-35.72
-34.94
-32.31
-28.15
-22.92
-17.18
-11.43
-6.10
-1.43
2.46
5.60
8.10
10.07
11.59
12.77
13.66
14.39
15.04
15.66
16.20
16.55
16.56
16.20
15.54
14.85
14.35
14.15
14.12
13.97
13.36
12.11
10.27
8.10
5.88
3.78
1.83
-0.10
-2.12
-4.22
-6.31
-8.18
-9.71
-10.87
-11.77
-12.64
-13.77
-15.43
-17.81
-20.94
-24.65
-28.57
-32.10
-34.60
-35.48
-34.37
-31.21
-26.27
-20.11
-13.41
-6.83
-0.82
4.35
8.63
12.06
14.70
16.56
17.64
17.97
17.68
17.01
16.20
15.45
14.86
14.39
13.99
13.60
13.25
13.02
12.94
13.04
13.24
13.43
13.50
13.35
12.93
12.21
11.17
9.81
8.16
6.23
4.13
1.99
0.03
-1.56
-2.70
-3.44
-4.05
-4.94
-6.49
-8.97
-12.40
-16.57
-21.00
-25.12
-28.27
-29.91
-29.65
-27.37
-23.29
-17.90
-11.83
-5.75
-0.23
4.37
7.89
10.40
12.08
13.19
13.94
14.47
14.84
15.07
15.19
15.22
15.26
15.34
15.51
15.75
16.02
16.28
16.49
16.63
16.65
16.44
15.90
14.95
13.56
11.77
9.64
7.23
4.57
1.65
-1.48
-4.76
-8.01
-11.09
-13.88
-16.38
-18.66
-20.90
-23.26
-25.85
-28.58
-31.22
-33.36
-34.52
-34.31
-32.54
-29.27
-24.77
-19.46
-13.79
-8.20
-3.09
1.28
4.75
7.34
9.23
10.65
11.81
12.80
13.59
14.11
14.34
14.33
14.22
14.13
14.10
14.13
14.16
14.18
14.21
14.29
14.42
14.54
14.53
14.22
13.54
12.46
11.03
9.36
7.50
5.46
3.20
0.72
-1.92
-4.56
-7.09
-9.47
-11.76
-14.17
-16.84
-19.87
-23.11
-26.31
-29.09
-31.11
-32.08
-31.79
-30.21
-27.41
-23.61
-19.11
-14.27
-9.45
-4.91
-0.81
2.78
5.83
8.35
10.34
11.83
12.87
13.58
14.10
14.57
15.11
15.68
16.20
16.52
16.58
16.42
16.17
15.99
15.96
16.03
16.06
15.88
15.40
14.56
13.46
12.19
10.85
9.52
8.17
6.73
5.06
3.07
0.73
-1.85
-4.49
-6.98
-9.24
-11.37
-13.60
-16.16
-19.20
-22.63
-26.15
-29.29
-31.52
-32.40
-31.69
-29.36
-25.66
-21.00
-15.90
-10.84
-6.12
-1.91
1.83
5.17
8.16
10.81
13.03
14.73
15.89
16.55
16.80
16.78
16.62
16.41
16.22
16.06
15.99
16.01
16.13
16.33
16.56
16.70
16.68
16.42
15.91
15.16
14.17
12.95
11.49
9.79
7.90
5.90
3.85
1.76
-0.39
-2.60
-4.83
-6.94
-8.79
-10.26
-11.44
-12.55
-13.94
-15.91
-18.58
-21.82
-25.23
-28.27
-30.38
-31.06
-30.07
-27.44
-23.47
-18.66
-13.58
-8.72
-4.37
-0.63
2.61
5.52
8.23
10.77
13.00
14.74
15.82
16.24
16.10
15.65
15.07
14.46
13.80
13.07
12.31
11.69
11.45
11.73
12.48
13.40
14.16
14.49
14.35
13.87
13.21
12.44
11.43
10.01
8.03
5.50
2.61
-0.37
-3.14
-5.52
-7.40
-8.76
-9.66
-10.26
-10.83
-11.69
-13.12
-15.28
-18.06
-21.07
-23.77
-25.60
-26.17
-25.33
-23.18
-19.97
-16.03
-11.70
-7.29
-3.08
0.67
3.82
6.28
8.12
9.37
10.12
10.42
10.37
10.11
9.90
9.93
10.29
10.88
11.45
11.71
11.48
10.73
9.62
8.44
7.52
7.09
7.26
7.95
8.94
9.92
10.61
10.90
10.82
10.52
10.14
9.71
9.17
8.37
7.22
5.68
3.86
1.95
0.10
-1.61
-3.23
-4.92
-6.77
-8.79
-10.86
-12.75
-14.28
-15.34
-15.90
-15.86
-15.04
-13.08
-9.63
-4.57
1.92
9.29
16.89
24.13
30.71
36.60
41.99
47.09
52.06
56.99
61.86
66.60
71.07
75.14
78.75
81.94
84.89
87.84
91.08
94.72
98.64
102.41
105.29
106.36
104.66
99.43
90.13
76.35
57.75
34.01
4.90
-29.57
-68.96
-112.33
-158.36
-205.59
-252.54
-297.57
-338.63
-373.09
-398.03
-410.92
-410.39
-396.49
-370.49
-334.32
-290.16
-240.49
-188.37
-137.65
-92.46
-56.16
-30.17
-13.56
-3.60
2.90
8.08
12.51
15.57
16.51
15.34
13.06
11.10
10.48
11.37
13.32
15.96
19.63
25.38
34.27
46.50
60.81
74.91
86.53
94.51
99.35
102.84
106.96
112.92
120.65
129.10
136.87
142.85
146.44
147.45
145.89
141.90
135.68
127.51
117.64
106.36
93.99
80.96
67.92
55.60
44.64
35.41
27.95
22.24
18.44
17.02
18.52
23.12
30.26
38.55
46.18
51.67
54.53
55.38
55.61
56.62
59.11
62.76
66.34
68.36
67.63
63.72
57.07
48.72
39.94
31.71
24.50
18.13
12.07
5.76
-1.10
-8.38
-15.69
-22.58
-28.73
-33.99
-38.32
-41.59
-43.63
-44.31
-43.65
-41.91
-39.56
-37.10
-34.94
-33.33
-32.35
-31.91
-31.79
-31.65
-31.11
-29.96
-28.19
-26.11
-24.15
-22.72
-22.06
-22.17
-22.86
-23.91
-25.06
-26.04
-26.55
-26.20
-24.62
-21.55
-16.92
-10.94
-4.03
3.28
10.44
17.04
22.81
27.66
31.52
34.30
35.78
35.69
33.83
30.25
25.34
19.77
14.22
9.21
4.94
1.33
-1.82
-4.57
-6.85
-8.42
-9.05
-8.70
-7.50
-5.81
-4.06
-2.64
-1.78
-1.56
-1.91
-2.67
-3.67
-4.77
-5.85
-6.91
-7.97
-9.06
-10.22
-11.48
-12.85
-14.37
-16.08
-18.08
-20.41
-23.13
-26.17
-29.39
-32.62
-35.62
-38.24
-40.33
-41.72
-42.20
-41.55
-39.55
-36.11
-31.33
-25.45
-18.79
-11.62
-4.22
3.08
9.88
15.75
20.40
23.81
26.27
28.27
30.23
32.28
34.21
35.63
36.20
35.86
34.85
33.58
32.35
31.19
29.87
28.03
25.44
22.18
18.57
15.11
12.20
9.98
8.30
6.89
5.46
3.89
2.22
0.51
-1.18
-2.85
-4.56
-6.31
-8.09
-9.93
-11.92
-14.19
-16.87
-19.94
-23.17
-26.16
-28.46
-29.67
-29.59
-28.22
-25.73
-22.38
-18.45
-14.25
-10.03
-6.02
-2.41
0.71
3.34
5.54
7.39
8.94
10.17
11.00
11.35
11.25
10.87
10.48
10.37
10.65
11.26
12.00
12.67
13.20
13.62
14.03
14.43
14.74
14.77
14.39
13.59
12.46
11.17
9.83
8.43
6.83
4.90
2.61
0.11
-2.36
-4.51
-6.20
-7.49
-8.64
-10.06
-12.07
-14.78
-18.07
-21.61
-24.98
-27.78
-29.65
-30.28
-29.48
-27.18
-23.53
-18.90
-13.82
-8.81
-4.29
-0.43
2.78
5.45
7.72
9.73
11.51
13.08
14.37
15.30
15.77
15.75
15.30
14.56
13.72
12.92
12.29
11.89
11.75
11.89
12.26
12.76
13.19
13.38
13.22
12.70
11.91
10.96
9.91
8.77
7.50
6.10
4.65
3.27
2.10
1.18
0.44
-0.33
-1.39
-2.94
-5.07
-7.68
-10.52
-13.28
-15.57
-17.07
-17.55
-16.90
-15.17
-12.54
-9.28
-5.68
-1.95
1.74
5.27
8.46
11.05
12.77
13.48
13.31
12.67
12.12
12.07
12.64
13.58
14.44
14.83
14.60
13.95
13.25
12.82
12.73
12.79
12.60
11.86
10.42
8.45
6.24
4.09
2.20
0.55
-0.96
-2.49
-4.14
-5.85
-7.52
-9.03
-10.31
-11.34
-12.20
-13.03
-13.96
-15.16
-16.71
-18.61
-20.77
-22.94
-24.82
-26.04
-26.27
-25.23
-22.80
-19.05
-14.28
-8.99
-3.77
0.88
4.61
7.33
9.15
10.27
10.95
11.40
11.79
12.27
12.88
13.55
14.13
14.37
14.10
13.29
12.09
10.81
9.83
9.41
9.58
10.13
10.61
10.56
9.71
8.08
6.04
4.04
2.43
1.29
0.36
-0.71
-2.19
-4.03
-5.97
-7.68
-8.92
-9.71
-10.20
-10.59
-11.00
-11.48
-12.15
-13.19
-14.86
-17.34
-20.58
-24.17
-27.38
-29.42
-29.67
-27.91
-24.36
-19.56
-14.12
-8.61
-3.37
1.38
5.49
8.82
11.28
12.97
14.17
15.38
17.13
19.74
23.14
26.93
30.60
33.71
36.16
38.12
39.98
42.15
44.92
48.37
52.36
56.68
61.10
65.54
70.16
75.26
81.14
87.91
95.39
103.16
110.83
118.17
125.12
131.61
137.29
141.39
142.97
141.23
135.84
126.94
115.09
100.98
85.41
69.17
52.99
37.35
22.19
6.74
-10.27
-30.03
-53.06
-78.66
-104.98
-129.58
-150.23
-165.70
-176.40
-184.37
-192.85
-205.19
-223.52
-247.53
-274.08
-297.93
-313.33
-315.89
-303.73
-277.68
-240.48
-195.61
-146.57
-96.64
-49.02
-6.77
27.54
52.58
68.52
76.98
80.26
80.55
79.42
77.74
75.93
74.23
72.78
71.58
70.46
69.15
67.46
65.39
63.03
60.40
57.32
53.47
48.60
42.86
36.82
31.34
27.18
24.62
23.33
22.54
21.42
19.45
16.66
13.52
10.69
8.65
7.54
7.21
7.37
7.85
8.69
10.13
12.46
15.77
19.95
24.67
29.56
34.20
38.17
40.89
41.47
38.86
32.05
20.62
5.07
-13.05
-31.55
-48.40
-62.34
-73.36
-82.43
-90.97
-100.07
-110.15
-120.92
-131.70
-141.80
-150.81
-158.66
-165.54
-171.84
-177.95
-184.08
-189.97
-194.67
-196.38
-192.68
-181.11
-159.98
-129.16
-90.54
-47.76
-5.45
31.95
61.18
80.82
91.20
94.02
91.64
86.47
80.57
75.45
72.01
70.56
70.93
72.50
74.49
76.20
77.17
77.34
76.95
76.47
76.28
76.58
77.20
77.73
77.58
76.22
73.46
69.46
64.69
59.79
55.30
51.50
48.39
45.76
43.35
40.99
38.65
36.39
34.27
32.27
30.33
28.38
26.37
24.33
22.27
20.14
17.82
15.21
12.33
9.32
6.41
3.85
1.72
-0.02
-1.55
-3.08
-4.79
-6.83
-9.34
-12.42
-16.14
-20.40
-24.85
-28.95
-32.05
-33.59
-33.27
-31.16
-27.56
-22.96
-17.86
-12.66
-7.67
-3.06
1.09
4.78
8.01
10.78
13.07
14.90
16.29
17.28
17.94
18.26
18.22
17.80
17.04
16.11
15.26
14.70
14.59
14.90
15.48
16.10
16.51
16.57
16.25
15.61
14.80
13.94
13.10
12.25
11.27
10.05
8.52
6.76
4.86
2.93
1.01
-0.94
-2.93
-4.88
-6.70
-8.35
-9.92
-11.75
-14.21
-17.50
-21.49
-25.66
-29.29
-31.65
-32.31
-31.23
-28.73
-25.27
-21.34
-17.28
-13.27
-9.43
-5.79
-2.46
0.55
3.19
5.53
7.68
9.68
11.48
12.89
13.71
13.78
13.16
12.12
11.02
10.20
9.88
10.07
10.67
11.49
12.37
13.13
13.65
13.83
13.67
13.23
12.64
12.00
11.34
10.55
9.47
8.02
6.20
4.18
2.19
0.43
-1.02
-2.22
-3.33
-4.53
-6.00
-7.82
-10.02
-12.57
-15.35
-18.19
-20.76
-22.71
-23.63
-23.28
-21.59
-18.76
-15.17
-11.24
-7.31
-3.57
-0.06
3.21
6.20
8.80
10.88
12.41
13.41
14.07
14.54
14.93
15.19
15.19
14.78
13.86
12.57
11.17
10.04
9.45
9.47
9.91
10.42
10.59
10.16
9.05
7.32
5.13
2.64
0.04
-2.43
-4.43
-5.60
-5.73
-4.84
-3.26
-1.48
-0.00
0.87
0.99
0.36
-1.01
-3.17
-6.12
-9.75
-13.71
-17.48
-20.47
-22.21
-22.47
-21.31
-19.00
-15.96
-12.61
-9.29
-6.15
-3.21
-0.38
2.43
5.14
7.58
9.52
10.79
11.40
11.53
11.44
11.37
11.37
11.39
11.31
11.05
10.64
10.21
9.92
9.88
10.15
10.67
11.34
11.99
12.43
12.51
12.12
11.29
10.13
8.80
7.41
5.99
4.47
2.76
0.82
-1.32
-3.54
-5.72
-7.78
-9.70
-11.50
-13.31
-15.28
-17.56
-20.26
-23.33
-26.53
-29.51
-31.86
-33.21
-33.33
-32.15
-29.70
-26.12
-21.70
-16.76
-11.71
-6.89
-2.53
1.28
4.58
7.43
9.86
11.81
13.26
14.19
14.67
14.84
14.84
14.80
14.76
14.67
14.46
14.05
13.47
12.88
12.50
12.52
12.92
13.47
13.77
13.48
12.43
10.75
8.75
6.75
4.91
3.20
1.46
-0.44
-2.52
-4.67
-6.75
-8.63
-10.28
-11.71
-12.93
-13.97
-14.98
-16.20
-17.96
-20.51
-23.87
-27.65
-31.07
-33.22
-33.23
-30.66
-25.59
-18.62
-10.74
-3.05
3.52
8.44
11.71
13.78
15.33
16.95
18.88
20.96
22.67
23.49
23.09
21.56
19.27
16.75
14.42
12.48
10.91
9.62
8.60
7.93
7.80
8.30
9.31
10.50
11.44
11.74
11.27
10.18
8.81
7.50
6.43
5.54
4.62
3.39
1.74
-0.30
-2.51
-4.61
-6.32
-7.54
-8.33
-8.91
-9.58
-10.62
-12.17
-14.23
-16.64
-19.14
-21.48
-23.39
-24.60
-24.85
-23.93
-21.75
-18.38
-14.08
-9.25
-4.33
0.31
4.38
7.68
10.07
11.47
11.90
11.47
10.45
9.12
7.76
6.55
5.59
4.93
4.64
4.84
5.64
7.05
8.94
10.97
12.73
13.85
14.16
13.75
12.92
12.04
11.36
10.93
10.59
10.08
9.15
7.69
5.81
3.73
1.70
-0.10
-1.62
-2.96
-4.35
-6.00
-8.08
-10.64
-13.63
-16.89
-20.19
-23.17
-25.49
-26.76
-26.73
-25.28
-22.56
-18.87
-14.65
-10.27
-6.02
-2.06
1.51
4.63
7.24
9.31
10.90
12.09
13.00
13.63
13.91
13.76
13.19
12.42
11.77
11.61
12.12
13.23
14.65
15.95
16.77
16.85
16.10
14.57
12.42
9.89
7.25
4.75
2.58
0.80
-0.69
-2.05
-3.44
-4.89
-6.25
-7.24
-7.62
-7.37
-6.74
-6.28
-6.61
-8.20
-11.17
-15.26
-19.90
-24.33
-27.86
-29.93
-30.29
-28.95
-26.20
-22.54
-18.43
-14.28
-10.27
-6.42
-2.69
0.95
4.42
7.59
10.26
12.35
13.85
14.83
15.42
15.69
15.65
15.25
14.44
13.20
11.69
10.19
9.07
8.64
9.01
10.05
11.37
12.48
13.00
12.73
11.74
10.27
8.68
7.22
6.00
4.94
3.86
2.58
0.96
-0.94
-2.99
-5.01
-6.91
-8.71
-10.54
-12.57
-14.89
-17.51
-20.33
-23.21
-25.97
-28.39
-30.16
-30.90
-30.30
-28.20
-24.71
-20.18
-15.09
-9.93
-5.03
-0.59
3.35
6.75
9.61
11.89
13.65
14.95
15.98
16.88
17.73
18.50
19.10
19.42
19.45
19.31
19.20
19.29
19.67
20.23
20.77
21.09
21.08
20.75
20.24
19.69
19.17
18.67
18.08
17.25
15.99
14.20
11.88
9.17
6.38
3.87
1.98
0.88
0.47
0.38
0.12
-0.75
-2.45
-4.88
-7.65
-10.25
-12.20
-13.23
-13.31
-12.55
-11.14
-9.14
-6.55
-3.29
0.73
5.54
11.08
16.92
22.14
25.27
24.53
18.47
6.71
-9.62
-28.02
-45.38
-58.96
-67.18
-69.83
-67.64
-61.75
-53.17
-42.69
-31.07
-19.19
-8.02
1.57
9.20
14.94
19.33
22.94
26.18
29.05
31.29
32.47
32.31
30.75
28.00
24.49
20.75
17.25
14.34
12.05
10.17
8.25
5.83
2.59
-1.44
-5.90
-10.18
-13.68
-15.94
-16.76
-16.12
-14.18
-11.20
-7.47
-3.34
0.83
4.71
8.07
10.80
12.91
14.49
15.62
16.38
16.81
16.88
16.54
15.77
14.62
13.23
11.78
10.50
9.53
8.93
8.67
8.64
8.70
8.69
8.51
8.10
7.48
6.71
5.84
4.88
3.80
2.56
1.19
-0.26
-1.70
-3.10
-4.48
-5.86
-7.26
-8.65
-9.96
-11.26
-12.74
-14.67
-17.22
-20.32
-23.58
-26.38
-28.12
-28.41
-27.22
-24.82
-21.64
-18.08
-14.43
-10.81
-7.26
-3.81
-0.51
2.49
5.03
7.01
8.41
9.35
9.98
10.48
10.88
11.14
11.20
11.02
10.65
10.17
9.73
9.42
9.32
9.44
9.78
10.24
10.69
10.97
10.95
10.62
10.03
9.28
8.39
7.28
5.79
3.80
1.35
-1.36
-4.04
-6.45
-8.42
-9.98
-11.21
-12.29
-13.43
-14.78
-16.50
-18.65
-21.22
-23.99
-26.65
-28.77
-29.90
-29.77
-28.26
-25.49
-21.76
-17.42
-12.79
-8.12
-3.61
0.55
4.17
7.10
9.23
10.62
11.40
11.78
11.93
11.93
11.85
11.72
11.59
11.53
11.58
11.75
12.03
12.39
12.82
13.31
13.79
14.18
14.34
14.15
13.56
12.61
11.40
10.05
8.65
7.16
5.55
3.73
1.71
-0.48
-2.73
-4.87
-6.75
-8.26
-9.37
-10.20
-10.98
-12.04
-13.67
-16.04
-19.07
-22.46
-25.67
-28.14
-29.34
-28.99
-27.08
-23.90
-19.88
-15.55
-11.33
-7.48
-4.11
-1.19
1.40
3.76
5.92
7.84
9.43
10.57
11.24
11.48
11.40
11.17
10.90
10.71
10.68
10.83
11.20
11.75
12.39
13.02
13.48
13.71
13.71
13.49
13.12
12.60
11.90
11.01
9.92
8.69
7.41
6.14
4.89
3.60
2.19
0.69
-0.79
-2.07
-3.00
-3.56
-3.95
-4.49
-5.51
-7.21
-9.58
-12.48
-15.66
-18.86
-21.80
-24.13
-25.49
-25.57
-24.26
-21.71
-18.33
-14.63
-11.00
-7.61
-4.43
-1.32
1.75
4.68
7.28
9.35
10.80
11.66
12.03
12.06
11.90
11.64
11.39
11.24
11.28
11.56
12.07
12.75
13.52
14.26
14.90
15.34
15.54
15.45
15.07
14.37
13.35
12.04
10.45
8.58
6.47
4.18
1.82
-0.48
-2.58
-4.44
-6.09
-7.71
-9.47
-11.47
-13.73
-16.12
-18.42
-20.42
-21.89
-22.70
-22.76
-21.99
-20.38
-17.91
-14.65
-10.81
-6.66
-2.55
1.21
4.38
6.89
8.76
10.09
11.01
11.63
12.02
12.21
12.23
12.10
11.86
11.57
11.32
11.21
11.32
11.62
12.01
12.33
12.43
12.29
11.92
11.42
10.82
10.12
9.26
8.13
6.67
4.87
2.79
0.50
-1.86
-4.17
-6.32
-8.27
-10.01
-11.64
-13.35
-15.32
-17.71
-20.53
-23.63
-26.68
-29.20
-30.68
-30.72
-29.16
-26.13
-21.97
-17.18
-12.28
-7.69
-3.67
-0.33
2.33
4.45
6.21
7.75
9.20
10.58
11.86
13.02
14.01
14.83
15.49
16.01
16.43
16.79
17.13
17.52
17.96
18.37
18.62
18.56
18.07
17.13
15.86
14.43
13.04
11.81
10.69
9.55
8.13
6.25
3.87
1.12
-1.72
-4.35
-6.61
-8.45
-10.01
-11.46
-12.97
-14.69
-16.71
-19.08
-21.74
-24.55
-27.21
-29.32
-30.49
-30.36
-28.83
-25.96
-22.06
-17.51
-12.76
-8.14
-3.86
-0.02
3.39
6.43
9.08
11.36
13.24
14.68
15.68
16.24
16.39
16.20
15.78
15.26
14.78
14.40
14.15
14.01
13.96
14.05
14.30
14.75
15.30
15.76
15.92
15.61
14.82
13.70
12.44
11.14
9.79
8.28
6.48
4.39
2.11
-0.15
-2.19
-3.91
-5.31
-6.46
-7.48
-8.50
-9.63
-11.01
-12.79
-15.07
-17.87
-21.09
-24.48
-27.63
-30.04
-31.20
-30.74
-28.54
-24.82
-20.02
-14.67
-9.22
-3.94
1.03
5.60
9.61
12.89
15.33
16.97
17.99
18.61
18.98
19.08
18.79
18.07
17.02
15.89
14.95
14.37
14.10
13.95
13.72
13.35
12.98
12.79
12.93
13.29
13.56
13.39
12.52
11.03
9.22
7.49
6.14
5.21
4.52
3.77
2.69
1.20
-0.61
-2.54
-4.39
-6.04
-7.47
-8.76
-10.02
-11.41
-13.04
-15.02
-17.38
-20.03
-22.72
-25.08
-26.67
-27.10
-26.17
-23.90
-20.54
-16.51
-12.24
-8.10
-4.33
-1.04
1.80
4.26
6.43
8.35
10.03
11.40
12.39
12.99
13.23
13.22
13.07
12.87
12.63
12.35
12.00
11.61
11.25
11.01
10.96
11.12
11.48
11.89
12.21
12.28
12.00
11.37
10.45
9.40
8.33
7.34
6.41
5.48
4.46
3.30
2.02
0.66
-0.72
-2.16
-3.72
-5.52
-7.65
-10.20
-13.15
-16.45
-19.90
-23.20
-25.93
-27.63
-27.95
-26.73
-24.08
-20.36
-16.05
-11.58
-7.31
-3.40
0.05
3.01
5.48
7.48
9.05
10.26
11.15
11.76
12.07
12.10
11.84
11.38
10.85
10.45
10.30
10.43
10.75
11.13
11.47
11.73
11.88
11.86
11.58
10.98
10.08
9.03
8.01
7.17
6.54
6.01
5.39
4.47
3.14
1.40
-0.63
-2.77
-4.82
-6.62
-8.06
-9.17
-10.11
-11.08
-12.31
-13.99
-16.25
-19.14
-22.58
-26.34
-29.98
-32.93
-34.66
-34.76
-33.18
-30.13
-26.03
-21.36
-16.53
-11.86
-7.50
-3.54
-0.01
3.13
5.84
8.13
9.94
11.27
12.13
12.58
12.73
12.67
12.46
12.12
11.62
11.03
10.48
10.12
10.08
10.36
10.81
11.16
11.18
10.78
9.97
8.94
7.88
6.93
6.16
5.57
5.10
4.66
4.14
3.38
2.26
0.72
-1.17
-3.21
-5.14
-6.76
-8.07
-9.27
-10.73
-12.76
-15.53
-18.91
-22.56
-26.02
-28.85
-30.71
-31.36
-30.73
-28.86
-25.91
-22.19
-18.04
-13.80
-9.74
-6.03
-2.73
0.18
2.73
5.02
7.09
9.01
10.74
12.14
13.07
13.39
13.13
12.46
11.66
10.98
10.56
10.40
10.44
10.57
10.70
10.75
10.63
10.27
9.61
8.65
7.45
6.13
4.81
3.61
2.60
1.82
1.24
0.77
0.30
-0.30
-1.10
-2.07
-3.09
-4.07
-4.91
-5.65
-6.40
-7.34
-8.65
-10.49
-12.96
-16.02
-19.54
-23.13
-26.28
-28.37
-28.91
-27.68
-24.83
-20.84
-16.32
-11.82
-7.69
-4.06
-0.93
1.67
3.74
5.25
6.27
6.95
7.45
7.85
8.09
8.01
7.50
6.57
5.41
4.36
3.78
3.92
4.87
6.46
8.35
10.08
11.28
11.78
11.69
11.33
11.03
10.98
11.14
11.27
11.07
10.34
9.04
7.23
5.04
2.69
0.38
-1.64
-3.25
-4.49
-5.64
-7.13
-9.38
-12.63
-16.71
-21.14
-25.23
-28.29
-29.92
-30.02
-28.77
-26.47
-23.39
-19.67
-15.38
-10.61
-5.55
-0.53
4.09
7.99
11.04
13.26
14.83
15.88
16.55
16.88
16.91
16.68
16.28
15.82
15.34
14.84
14.31
13.75
13.27
13.04
13.18
13.68
14.29
14.64
14.39
13.33
11.52
9.23
6.84
4.75
3.14
2.02
1.19
0.40
-0.60
-1.91
-3.50
-5.22
-6.94
-8.54
-10.08
-11.68
-13.52
-15.71
-18.26
-21.03
-23.78
-26.15
-27.83
-28.56
-28.26
-26.91
-24.62
-21.47
-17.55
-13.01
-8.08
-3.07
1.66
5.83
9.30
12.14
14.52
16.65
18.59
20.24
21.38
21.78
21.34
20.16
18.53
16.83
15.45
14.64
14.45
14.77
15.38
16.06
16.59
16.86
16.79
16.30
15.36
13.92
12.05
9.89
7.69
5.70
4.07
2.79
1.72
0.62
-0.73
-2.39
-4.36
-6.51
-8.73
-10.96
-13.21
-15.56
-18.10
-20.95
-24.06
-27.22
-30.00
-31.88
-32.34
-31.09
-28.18
-23.97
-18.94
-13.57
-8.18
-2.95
2.00
6.49
10.31
13.26
15.28
16.48
17.12
17.49
17.75
17.95
17.98
17.72
17.13
16.32
15.48
14.86
14.58
14.60
14.77
14.84
14.66
14.17
13.45
12.55
11.51
10.28
8.83
7.19
5.52
4.02
2.82
1.93
1.20
0.43
-0.52
-1.66
-2.86
-3.96
-4.85
-5.59
-6.34
-7.36
-8.89
-11.04
-13.72
-16.62
-19.28
-21.17
-21.87
-21.14
-19.11
-16.05
-12.40
-8.56
-4.83
-1.36
1.73
4.37
6.52
8.19
9.48
10.55
11.48
12.27
12.81
12.92
12.47
11.46
10.10
8.72
7.71
7.41
7.96
9.32
11.21
13.18
14.82
15.79
16.02
15.63
14.88
14.05
13.32
12.76
12.27
11.74
11.03
10.07
8.86
7.42
5.83
4.13
2.34
0.37
-2.00
-5.05
-8.99
-13.84
-19.26
-24.66
-29.32
-32.55
-33.92
-33.30
-30.80
-26.78
-21.75
-16.30
-11.05
-6.47
-2.74
0.19
2.57
4.62
6.45
8.04
9.30
10.17
10.74
11.07
11.17
11.01
10.57
9.98
9.53
9.57
10.33
11.74
13.45
14.97
15.86
15.97
15.36
14.30
13.07
11.87
10.78
9.78
8.74
7.51
5.95
3.98
1.63
-0.96
-3.58
-6.03
-8.18
-10.00
-11.58
-13.12
-14.92
-17.28
-20.42
-24.30
-28.53
-32.42
-35.13
-35.97
-34.65
-31.33
-26.54
-20.94
-15.13
-9.51
-4.34
0.20
3.97
6.86
8.90
10.30
11.35
12.32
13.35
14.45
15.47
16.30
16.84
17.06
16.97
16.59
15.97
15.20
14.43
13.84
13.58
13.65
13.89
13.99
13.64
12.67
11.12
9.24
7.38
5.92
5.02
4.62
4.45
4.12
3.31
1.84
-0.19
-2.49
-4.68
-6.48
-7.84
-8.95
-10.17
-11.82
-14.06
-16.77
-19.69
-22.48
-24.85
-26.57
-27.47
-27.43
-26.33
-24.17
-21.03
-17.14
-12.83
-8.49
-4.50
-1.12
1.50
3.38
4.71
5.75
6.77
7.97
9.41
11.00
12.58
14.04
15.27
16.25
16.94
17.33
17.42
17.26
17.02
16.83
16.81
16.93
17.06
17.03
16.68
15.97
14.89
13.49
11.76
9.74
7.49
5.22
3.19
1.56
0.35
-0.65
-1.75
-3.22
-5.16
-7.47
-9.94
-12.36
-14.65
-16.84
-19.05
-21.36
-23.71
-25.97
-27.83
-29.03
-29.29
-28.50
-26.62
-23.76
-20.08
-15.78
-11.09
-6.23
-1.51
2.76
6.34
9.05
10.95
12.19
13.01
13.59
14.03
14.32
14.43
14.38
14.19
13.91
13.57
13.17
12.77
12.43
12.23
12.21
12.33
12.43
12.28
11.71
10.69
9.36
7.97
6.76
5.83
5.12
4.47
3.71
2.77
1.68
0.53
-0.58
-1.60
-2.57
-3.48
-4.40
-5.37
-6.52
-8.03
-10.07
-12.69
-15.71
-18.75
-21.26
-22.73
-22.82
-21.47
-18.89
-15.45
-11.55
-7.56
-3.70
-0.11
3.14
5.94
8.23
9.90
10.92
11.35
11.35
11.10
10.81
10.58
10.38
10.17
9.88
9.53
9.24
9.13
9.30
9.77
10.45
11.19
11.84
12.33
12.60
12.65
12.42
11.86
10.96
9.79
8.53
7.37
6.42
5.61
4.76
3.62
2.07
0.20
-1.73
-3.42
-4.64
-5.40
-5.89
-6.43
-7.39
-9.01
-11.41
-14.51
-18.00
-21.41
-24.10
-25.47
-25.14
-23.15
-20.04
-16.77
-14.39
-13.62
-14.58
-16.68
-18.82
-19.90
-19.15
-16.47
-12.27
-7.25
-2.12
2.59
6.61
9.83
12.22
13.83
14.74
15.09
15.05
14.81
14.54
14.36
14.29
14.30
14.23
13.95
13.40
12.61
11.79
11.12
10.72
10.46
10.08
9.27
7.86
5.88
3.55
1.17
-1.01
-2.85
-4.34
-5.59
-6.71
-7.77
-8.84
-9.93
-11.09
-12.50
-14.34
-16.84
-20.02
-23.69
-27.32
-30.29
-32.01
-32.12
-30.58
-27.63
-23.66
-19.08
-14.24
-9.42
-4.85
-0.71
2.88
5.87
8.31
10.22
11.66
12.62
13.18
13.42
13.51
13.65
13.92
14.34
14.73
14.93
14.81
14.38
13.78
13.12
12.47
11.77
10.89
9.69
8.18
6.45
4.70
3.12
1.81
0.76
-0.12
-0.92
-1.74
-2.62
-3.55
-4.52
-5.47
-6.35
-7.09
-7.64
-8.04
-8.40
-8.94
-9.93
-11.58
-13.92
-16.78
-19.74
-22.27
-23.83
-24.07
-22.94
-20.74
-17.94
-15.04
-12.29
-9.69
-7.05
-4.24
-1.30
1.49
3.83
5.57
6.78
7.71
8.57
9.43
10.16
10.59
10.66
10.54
10.50
10.82
11.59
12.74
14.04
15.24
16.07
16.41
16.20
15.48
14.40
13.13
11.84
10.61
9.45
8.28
6.99
5.50
3.75
1.76
-0.39
-2.57
-4.63
-6.49
-8.20
-9.92
-11.88
-14.26
-17.12
-20.25
-23.27
-25.71
-27.12
-27.23
-25.98
-23.48
-19.96
-15.78
-11.37
-7.09
-3.25
0.02
2.80
5.22
7.38
9.29
10.85
11.96
12.59
12.84
12.85
12.77
12.69
12.66
12.73
12.95
13.35
13.88
14.42
14.79
14.89
14.67
14.14
13.33
12.28
11.04
9.67
8.31
7.03
5.82
4.54
2.97
1.01
-1.31
-3.76
-6.00
-7.74
-8.90
-9.61
-10.25
-11.23
-12.91
-15.42
-18.61
-22.06
-25.13
-27.22
-27.83
-26.82
-24.35
-20.81
-16.66
-12.35
-8.15
-4.20
-0.59
2.66
5.48
7.79
9.56
10.83
11.68
12.25
12.63
12.81
12.72
12.36
11.79
11.19
10.75
10.54
10.54
10.63
10.68
10.71
10.80
11.10
11.67
12.38
13.00
13.30
13.12
12.45
11.39
10.07
8.61
7.14
5.76
4.52
3.45
2.47
1.46
0.30
-1.12
-2.88
-5.04
-7.66
-10.79
-14.37
-18.27
-22.13
-25.57
-28.13
-29.53
-29.65
-28.59
-26.51
-23.62
-20.04
-15.85
-11.15
-6.11
-1.02
3.77
7.95
11.33
13.87
15.69
17.01
18.03
18.90
19.68
20.34
20.78
20.93
20.77
20.34
19.81
19.31
18.97
18.77
18.57
18.20
17.54
16.54
15.18
13.50
11.56
9.44
7.27
5.20
3.33
1.61
-0.07
-1.89
-3.90
-6.03
-8.03
-9.61
-10.57
-10.93
-10.90
-10.85
-11.17
-12.16
-14.00
-16.64
-19.80
-22.98
-25.55
-26.89
-26.59
-24.60
-21.21
-16.94
-12.35
-7.86
-3.66
0.25
3.88
7.20
10.11
12.44
14.10
15.08
15.51
15.51
15.15
14.44
13.36
12.02
10.62
9.47
8.85
8.87
9.46
10.36
11.27
11.97
12.40
12.59
12.64
12.56
12.35
11.94
11.30
10.45
9.37
8.10
6.60
4.92
3.14
1.42
-0.04
-1.12
-1.79
-2.22
-2.67
-3.47
-4.86
-6.97
-9.77
-13.01
-16.37
-19.38
-21.58
-22.61
-22.32
-20.76
-18.17
-14.93
-11.40
-7.88
-4.54
-1.43
1.47
4.14
6.46
8.29
9.45
9.95
9.91
9.61
9.32
9.19
9.23
9.33
9.36
9.27
9.09
8.96
8.99
9.28
9.82
10.58
11.41
12.12
12.50
12.42
11.82
10.76
9.37
7.84
6.29
4.84
3.55
2.43
1.42
0.42
-0.69
-1.99
-3.46
-4.94
-6.25
-7.26
-8.03
-8.79
-9.89
-11.63
-14.12
-17.23
-20.57
-23.64
-25.92
-27.01
-26.70
-25.04
-22.31
-19.02
-15.76
-13.09
-11.26
-10.20
-9.50
-8.63
-7.17
-4.98
-2.25
0.62
3.25
5.37
6.97
8.18
9.15
10.01
10.80
11.55
12.28
13.04
13.84
14.67
15.42
15.97
16.20
16.05
15.53
14.64
13.45
12.00
10.38
8.64
6.90
5.18
3.46
1.69
-0.19
-2.21
-4.35
-6.53
-8.65
-10.64
-12.41
-13.88
-15.03
-15.91
-16.66
-17.47
-18.55
-20.03
-21.90
-23.94
-25.83
-27.15
-27.50
-26.58
-24.35
-20.99
-16.87
-12.49
-8.27
-4.48
-1.16
1.70
4.16
6.20
7.73
8.71
9.22
9.41
9.53
9.71
9.94
10.11
10.02
9.57
8.77
7.75
6.79
6.15
6.02
6.45
7.35
8.49
9.56
10.34
10.67
10.54
10.03
9.28
8.41
7.50
6.55
5.57
4.52
3.39
2.20
0.95
-0.30
-1.52
-2.69
-3.83
-4.98
-6.16
-7.41
-8.80
-10.42
-12.41
-14.90
-17.89
-21.17
-24.33
-26.86
-28.29
-28.36
-27.07
-24.64
-21.37
-17.55
-13.40
-9.09
-4.77
-0.67
3.03
6.15
8.66
10.62
12.17
13.43
14.44
15.18
15.56
15.56
15.23
14.69
14.13
13.68
13.40
13.30
13.30
13.34
13.29
13.05
12.55
11.74
10.63
9.33
7.97
6.64
5.41
4.24
3.06
1.77
0.28
-1.38
-3.15
-4.89
-6.46
-7.73
-8.62
-9.14
-9.45
-9.80
-10.51
-11.87
-14.00
-16.84
-20.01
-23.02
-25.24
-26.21
-25.66
-23.66
-20.53
-16.74
-12.74
-8.87
-5.33
-2.18
0.58
2.95
4.98
6.71
8.23
9.60
10.85
11.92
12.72
13.13
13.09
12.66
11.97
11.29
10.87
10.86
11.30
12.01
12.74
13.17
13.10
12.49
11.45
10.19
8.95
7.88
7.09
6.58
6.29
6.10
5.79
5.09
3.81
1.90
-0.49
-3.05
-5.41
-7.30
-8.65
-9.64
-10.58
-11.84
-13.72
-16.35
-19.67
-23.35
-26.93
-29.92
-31.87
-32.54
-31.85
-29.89
-26.82
-22.90
-18.38
-13.57
-8.77
-4.23
-0.08
3.70
7.18
10.42
13.37
15.81
17.53
18.36
18.31
17.60
16.52
15.37
14.33
13.49
12.81
12.23
11.70
11.19
10.69
10.21
9.70
9.14
8.57
8.11
8.01
8.53
9.82
11.73
13.84
15.53
16.20
15.56
13.67
10.94
7.90
5.03
2.63
0.77
-0.60
-1.64
-2.62
-3.88
-5.76
-8.52
-12.22
-16.61
-21.18
-25.27
-28.33
-29.93
-29.98
-28.63
-26.15
-22.83
-18.92
-14.61
-10.10
-5.61
-1.38
2.35
5.40
7.73
9.39
10.53
11.36
12.02
12.64
13.23
13.73
14.03
14.11
14.01
13.91
13.98
14.34
14.95
15.66
16.20
16.39
16.11
15.39
14.28
12.90
11.33
9.65
7.95
6.34
4.89
3.64
2.54
1.46
0.31
-0.97
-2.37
-3.82
-5.30
-6.82
-8.48
-10.36
-12.48
-14.84
-17.29
-19.64
-21.66
-23.06
-23.55
-22.93
-21.10
-18.18
-14.48
-10.37
-6.19
-2.20
1.51
4.88
7.87
10.41
12.46
14.02
15.13
15.84
16.16
16.07
15.63
14.95
14.24
13.71
13.41
13.25
13.03
12.58
11.87
11.05
10.31
9.81
9.56
9.44
9.28
8.96
8.42
7.67
6.73
5.61
4.27
2.72
1.03
-0.67
-2.24
-3.57
-4.71
-5.79
-7.08
-8.79
-11.09
-13.94
-17.15
-20.38
-23.24
-25.34
-26.36
-26.15
-24.70
-22.19
-18.97
-15.38
-11.71
-8.14
-4.67
-1.26
2.10
5.33
8.23
10.59
12.29
13.33
13.91
14.23
14.48
14.70
14.80
14.69
14.26
13.53
12.62
11.71
10.98
10.58
10.54
10.75
11.03
11.15
10.91
10.27
9.33
8.25
7.16
6.06
4.81
3.26
1.33
-0.87
-3.13
-5.22
-6.97
-8.41
-9.69
-11.08
-12.82
-15.05
-17.77
-20.86
-24.03
-26.94
-29.24
-30.62
-30.84
-29.82
-27.57
-24.25
-20.09
-15.39
-10.46
-5.57
-0.96
3.22
6.92
10.17
12.98
15.37
17.36
18.95
20.17
21.08
21.69
22.05
22.14
21.91
21.32
20.38
19.16
17.77
16.38
15.06
13.85
12.70
11.54
10.32
9.05
7.79
6.66
5.73
5.03
4.50
4.08
3.64
3.12
2.47
1.64
0.63
-0.61
-2.12
-3.92
-6.04
-8.58
-11.55
-14.90
-18.47
-21.92
-24.89
-26.99
-28.01
-27.82
-26.50
-24.23
-21.26
-17.87
-14.27
-10.61
-6.96
-3.36
0.16
3.45
6.32
8.63
10.35
11.60
12.50
13.13
13.50
13.58
13.45
13.27
13.23
13.46
13.97
14.64
15.37
16.04
16.57
16.86
16.79
16.28
15.31
14.01
12.59
11.21
9.93
8.69
7.39
5.93
4.29
2.45
0.43
-1.67
-3.65
-5.27
-6.36
-6.94
-7.25
-7.69
-8.61
-10.24
-12.56
-15.38
-18.39
-21.23
-23.58
-25.13
-25.66
-25.00
-23.16
-20.34
-16.82
-12.97
-9.09
-5.41
-2.05
0.92
3.47
5.60
7.31
8.62
9.58
10.21
10.55
10.64
10.54
10.33
10.06
9.80
9.57
9.42
9.39
9.51
9.81
10.19
10.50
10.50
10.05
9.12
7.91
6.74
5.92
5.60
5.76
6.17
6.53
6.57
6.15
5.25
3.98
2.51
1.01
-0.36
-1.44
-2.23
-2.80
-3.43
-4.49
-6.33
-9.13
-12.83
-17.07
-21.34
-25.04
-27.65
-28.77
-28.27
-26.20
-22.88
-18.79
-14.53
-10.60
-7.30
-4.59
-2.28
-0.08
2.18
4.50
6.77
8.86
10.70
12.28
13.58
14.52
14.97
14.86
14.25
13.38
12.57
12.16
12.27
12.83
13.58
14.23
14.55
14.43
13.87
12.91
11.61
10.02
8.26
6.48
4.82
3.37
2.12
0.97
-0.21
-1.52
-3.00
-4.61
-6.30
-7.99
-9.61
-11.10
-12.42
-13.63
-14.83
-16.22
-17.94
-20.02
-22.33
-24.50
-26.13
-26.82
-26.33
-24.64
-21.96
-18.63
-15.04
-11.46
-8.06
-4.92
-2.05
0.52
2.72
4.51
5.90
7.04
8.08
9.16
10.33
11.48
12.41
12.91
12.85
12.27
11.33
10.29
9.41
8.85
8.69
8.88
9.32
9.91
10.54
11.05
11.25
10.91
9.85
8.05
5.75
3.38
1.44
0.27
-0.07
0.20
0.64
0.83
0.52
-0.32
-1.59
-3.09
-4.66
-6.15
-7.48
-8.57
-9.46
-10.27
-11.27
-12.74
-14.86
-17.55
-20.50
-23.14
-24.89
-25.30
-24.20
-21.78
-18.46
-14.83
-11.36
-8.33
-5.75
-3.44
-1.15
1.27
3.73
6.05
7.98
9.35
10.16
10.54
10.66
10.68
10.66
10.62
10.56
10.48
10.44
10.50
10.69
11.02
11.45
11.91
12.33
12.64
12.80
12.84
12.79
12.70
12.60
12.45
12.14
11.53
10.51
9.07
7.31
5.44
3.65
2.05
0.60
-0.81
-2.28
-3.80
-5.27
-6.58
-7.72
-8.86
-10.27
-12.24
-14.88
-18.04
-21.32
-24.21
-26.22
-27.03
-26.56
-24.90
-22.27
-18.98
-15.29
-11.48
-7.77
-4.29
-1.12
1.74
4.34
6.71
8.85
10.68
12.14
13.20
13.89
14.30
14.52
14.60
14.58
14.49
14.37
14.25
14.19
14.17
14.18
14.20
14.21
14.17
14.04
13.71
13.06
12.03
10.66
9.11
7.55
6.13
4.88
3.80
2.80
1.81
0.77
-0.34
-1.54
-2.81
-4.13
-5.45
-6.73
-8.00
-9.31
-10.75
-12.41
-14.36
-16.62
-19.22
-22.06
-25.00
-27.73
-29.89
-31.12
-31.19
-30.04
-27.79
-24.71
-21.10
-17.21
-13.25
-9.34
-5.59
-2.12
0.92
3.44
5.31
6.56
7.28
7.65
7.81
7.87
7.80
7.53
7.03
6.34
5.59
4.91
4.39
3.99
3.56
2.92
1.93
0.55
-1.16
-3.04
-4.97
-6.89
-8.77
-10.62
-12.45
-14.25
-16.03
-17.82
-19.67
-21.60
-23.60
-25.49
-27.03
-27.89
-27.74
-26.37
-23.71
-19.86
-15.13
-9.97
-4.83
-0.15
3.73
6.59
8.31
8.89
8.42
7.19
5.64
4.30
3.70
4.15
5.69
8.01
10.67
13.21
15.37
17.09
18.51
19.78
21.00
22.16
23.12
23.77
24.06
24.03
23.75
23.31
22.69
21.84
20.75
19.49
18.30
17.46
17.18
17.45
18.07
18.72
19.12
19.15
18.81
18.18
17.31
16.21
14.91
13.45
11.98
10.62
9.46
8.45
7.48
6.46
5.31
4.06
2.74
1.36
-0.11
-1.69
-3.37
-5.12
-6.85
-8.55
-10.30
-12.22
-14.49
-17.14
-20.08
-22.99
-25.41
-26.81
-26.82
-25.35
-22.58
-18.93
-14.86
-10.75
-6.81
-3.11
0.35
3.52
6.30
8.58
10.29
11.46
12.16
12.54
12.70
12.72
12.64
12.56
12.62
12.95
13.61
14.43
14.98
14.71
13.18
10.30
6.51
2.54
-0.81
-3.04
-4.09
-4.25
-3.89
-3.25
-2.39
-1.29
-0.02
1.19
2.01
2.16
1.54
0.33
-1.20
-2.73
-4.08
-5.18
-6.13
-7.04
-8.06
-9.35
-11.04
-13.23
-15.89
-18.87
-21.83
-24.32
-25.87
-26.11
-24.92
-22.44
-19.01
-15.08
-11.04
-7.19
-3.70
-0.59
2.12
4.47
6.41
7.92
8.97
9.57
9.79
9.73
9.54
9.29
9.07
8.92
8.89
9.01
9.31
9.79
10.40
11.07
11.71
12.24
12.63
12.84
12.88
12.77
12.51
12.05
11.39
10.50
9.38
8.04
6.51
4.83
3.01
1.07
-0.99
-3.11
-5.15
-6.97
-8.42
-9.50
-10.32
-11.15
-12.24
-13.79
-15.84
-18.30
-21.02
-23.76
-26.30
-28.36
-29.67
-29.95
-29.07
-27.04
-24.09
-20.59
-16.87
-13.14
-9.47
-5.86
-2.24
1.33
4.64
7.48
9.66
11.12
12.00
12.53
12.94
13.41
13.93
14.44
14.78
14.90
14.82
14.68
14.64
14.81
15.17
15.57
15.79
15.69
15.22
14.50
13.68
12.87
12.06
11.09
9.80
8.14
6.18
4.16
2.27
0.58
-1.01
-2.69
-4.58
-6.63
-8.63
-10.28
-11.39
-11.99
-12.35
-12.88
-14.00
-15.95
-18.75
-22.14
-25.67
-28.75
-30.86
-31.59
-30.77
-28.51
-25.13
-21.06
-16.73
-12.48
-8.48
-4.75
-1.24
2.08
5.23
8.13
10.72
12.91
14.65
15.93
16.81
17.37
17.73
18.00
18.23
18.44
18.58
18.62
18.55
18.41
18.24
18.07
17.85
17.51
16.98
16.27
15.48
14.63
13.76
12.77
11.51
9.91
7.97
5.89
3.89
2.13
0.67
-0.56
-1.70
-2.87
-4.08
-5.28
-6.41
-7.45
-8.54
-9.90
-11.76
-14.24
-17.26
-20.48
-23.43
-25.64
-26.72
-26.54
-25.14
-22.71
-19.48
-15.70
-11.61
-7.44
-3.40
0.29
3.51
6.16
8.22
9.73
10.78
11.45
11.87
12.10
12.20
12.19
12.08
11.89
11.69
11.57
11.63
11.96
12.54
13.31
14.13
14.84
15.30
15.43
15.24
14.76
14.04
13.07
11.81
10.25
8.44
6.48
4.50
2.58
0.73
-1.06
-2.79
-4.38
-5.71
-6.71
-7.44
-8.16
-9.19
-10.83
-13.20
-16.27
-19.82
-23.55
-27.08
-29.96
-31.74
-32.07
-30.82
-28.14
-24.38
-19.98
-15.32
-10.70
-6.28
-2.17
1.49
4.61
7.18
9.26
10.97
12.37
13.44
14.14
14.42
14.30
13.88
13.26
12.58
11.94
11.44
11.20
11.28
11.69
12.32
13.05
13.75
14.33
14.75
14.97
14.93
14.52
13.68
12.39
10.73
8.81
6.77
4.64
2.41
0.05
-2.43
-4.90
-7.19
-9.13
-10.70
-11.98
-13.20
-14.58
-16.31
-18.48
-21.08
-23.94
-26.78
-29.22
-30.86
-31.33
-30.45
-28.23
-24.88
-20.74
-16.15
-11.45
-6.86
-2.57
1.30
4.72
7.71
10.31
12.51
14.21
15.29
15.68
15.46
14.89
14.29
13.89
13.76
13.77
13.69
13.37
12.80
12.19
11.79
11.79
12.16
12.71
13.13
13.17
12.71
11.83
10.68
9.43
8.10
6.64
4.97
3.10
1.17
-0.61
-2.01
-2.94
-3.42
-3.62
-3.80
-4.17
-4.96
-6.33
-8.39
-11.20
-14.67
-18.57
-22.48
-25.89
-28.23
-29.06
-28.20
-25.78
-22.21
-18.03
-13.72
-9.56
-5.58
-1.73
2.07
5.70
8.97
11.66
13.64
14.93
15.69
16.09
16.24
16.17
15.88
15.43
14.93
14.59
14.60
15.00
15.73
16.57
17.23
17.45
17.07
16.11
14.74
13.21
11.75
10.49
9.44
8.47
7.40
6.08
4.48
2.66
0.78
-0.97
-2.43
-3.55
-4.37
-5.08
-5.94
-7.25
-9.22
-11.92
-15.17
-18.59
-21.66
-23.93
-25.07
-24.98
-23.77
-21.66
-18.88
-15.66
-12.16
-8.54
-4.97
-1.60
1.40
3.98
6.17
8.05
9.70
11.15
12.35
13.21
13.64
13.63
13.24
12.58
11.84
11.19
10.77
10.66
10.84
11.16
11.45
11.54
11.37
10.95
10.44
9.95
9.56
9.21
8.72
7.89
6.50
4.46
1.84
-1.10
-4.02
-6.54
-8.43
-9.66
-10.42
-11.05
-11.88
-13.21
-15.16
-17.72
-20.78
-24.10
-27.41
-30.34
-32.49
-33.49
-33.11
-31.28
-28.13
-23.96
-19.13
-14.01
-8.94
-4.15
0.14
3.80
6.72
8.88
10.32
11.20
11.72
12.11
12.51
12.94
13.32
13.54
13.51
13.24
12.91
12.75
12.96
13.62
14.59
15.57
16.18
16.16
15.44
14.16
12.65
11.25
10.17
9.39
8.64
7.61
6.00
3.72
0.93
-2.08
-4.94
-7.42
-9.39
-10.91
-12.18
-13.50
-15.19
-17.49
-20.43
-23.84
-27.25
-30.08
-31.76
-31.95
-30.58
-27.86
-24.20
-19.99
-15.57
-11.15
-6.88
-2.88
0.76
3.97
6.78
9.26
11.49
13.52
15.29
16.68
17.54
17.80
17.56
16.98
16.29
15.66
15.21
14.95
14.88
14.99
15.25
15.55
15.72
15.60
15.06
14.15
13.05
11.97
11.07
10.30
9.48
8.39
6.91
5.07
3.08
1.18
-0.41
-1.61
-2.48
-3.19
-3.95
-5.01
-6.57
-8.75
-11.56
-14.81
-18.20
-21.28
-23.59
-24.80
-24.70
-23.34
-20.91
-17.68
-13.94
-9.89
-5.70
-1.52
2.52
6.24
9.46
12.05
13.96
15.23
15.98
16.31
16.26
15.85
15.09
14.06
12.96
12.04
11.56
11.68
12.35
13.39
14.48
15.31
15.72
15.71
15.46
15.16
14.95
14.80
14.53
13.85
12.59
10.71
8.41
5.97
3.65
1.57
-0.32
-2.11
-3.92
-5.81
-7.83
-10.08
-12.68
-15.67
-18.93
-22.09
-24.60
-25.87
-25.50
-23.45
-20.01
-15.77
-11.33
-7.16
-3.53
-0.43
2.23
4.55
6.61
8.38
9.87
11.09
12.08
12.87
13.45
13.76
13.79
13.58
13.29
13.07
13.04
13.21
13.51
13.80
14.00
14.06
13.99
13.81
13.54
13.18
12.73
12.12
11.30
10.15
8.65
6.77
4.61
2.25
-0.17
-2.54
-4.78
-6.84
-8.74
-10.60
-12.61
-14.97
-17.77
-20.92
-24.06
-26.74
-28.51
-29.13
-28.57
-26.99
-24.63
-21.67
-18.24
-14.43
-10.38
-6.30
-2.46
0.93
3.77
6.05
7.89
9.41
10.67
11.69
12.44
12.91
13.12
13.19
13.19
13.19
13.15
12.97
12.59
12.00
11.34
10.76
10.34
10.04
9.67
9.02
7.98
6.61
5.16
3.87
2.91
2.23
1.65
0.89
-0.31
-2.07
-4.31
-6.79
-9.18
-11.18
-12.64
-13.66
-14.52
-15.60
-17.16
-19.26
-21.65
-23.93
-25.63
-26.38
-26.00
-24.53
-22.22
-19.37
-16.29
-13.17
-10.05
-6.91
-3.65
-0.30
3.04
6.16
8.86
10.96
12.36
13.04
13.05
12.51
11.59
10.51
9.50
8.74
8.33
8.19
8.23
8.31
8.39
8.56
8.94
9.58
10.36
10.93
10.94
10.17
8.66
6.78
4.98
3.57
2.56
1.75
0.86
-0.22
-1.36
-2.27
-2.75
-2.80
-2.68
-2.77
-3.44
-4.81
-6.81
-9.27
-11.96
-14.70
-17.32
-19.65
-21.45
-22.47
-22.51
-21.48
-19.46
-16.70
-13.49
-10.15
-6.89
-3.85
-1.06
1.50
3.85
5.96
7.77
9.19
10.14
10.61
10.70
10.50
10.20
9.93
9.77
9.76
9.85
10.00
10.18
10.38
10.57
10.72
10.78
10.70
10.43
10.00
9.46
8.91
8.44
8.04
7.66
7.14
6.26
4.91
3.11
1.01
-1.09
-2.93
-4.35
-5.35
-6.16
-7.04
-8.22
-9.82
-11.82
-14.08
-16.43
-18.65
-20.52
-21.84
-22.45
-22.26
-21.29
-19.64
-17.46
-14.87
-11.97
-8.75
-5.25
-1.54
2.21
5.76
8.84
11.21
12.72
13.35
13.22
12.57
11.73
11.02
10.61
10.50
10.60
10.75
10.89
11.09
11.46
12.10
12.97
13.80
14.32
14.28
13.65
12.56
11.24
9.86
8.48
7.05
5.52
3.85
2.10
0.36
-1.28
-2.66
-3.63
-4.10
-4.16
-4.13
-4.46
-5.59
-7.68
-10.59
-13.96
-17.38
-20.62
-23.63
-26.49
-29.13
-31.34
-32.74
-32.99
-31.92
-29.55
-26.10
-21.90
-17.33
-12.85
-8.87
-5.71
-3.46
-1.98
-0.98
-0.10
0.93
2.24
3.83
5.65
7.59
9.57
11.45
13.06
14.25
14.92
15.11
14.92
14.57
14.22
14.00
13.97
14.13
14.41
14.65
14.64
14.17
13.07
11.42
9.50
7.66
6.19
5.18
4.40
3.48
2.10
0.17
-2.19
-4.67
-7.04
-9.15
-10.97
-12.54
-13.86
-14.90
-15.69
-16.37
-17.15
-18.31
-20.00
-22.16
-24.49
-26.57
-27.92
-28.19
-27.27
-25.23
-22.33
-18.87
-15.14
-11.38
-7.75
-4.36
-1.28
1.44
3.79
5.72
7.24
8.33
9.02
9.36
9.47
9.53
9.72
10.19
10.97
12.03
13.26
14.52
15.71
16.72
17.46
17.87
17.93
17.68
17.22
16.62
15.85
14.84
13.49
11.84
10.04
8.27
6.67
5.25
3.90
2.56
1.23
-0.06
-1.26
-2.39
-3.49
-4.60
-5.73
-6.85
-7.96
-9.14
-10.52
-12.24
-14.34
-16.68
-18.99
-20.94
-22.25
-22.69
-22.18
-20.76
-18.54
-15.68
-12.36
-8.73
-4.98
-1.31
2.00
4.76
6.88
8.48
9.78
11.04
12.44
13.96
15.48
16.89
18.10
19.10
19.91
20.54
21.07
21.66
22.59
24.14
26.48
29.47
32.68
35.52
37.53
38.62
39.10
39.60
40.77
42.94
45.98
49.36
52.40
54.58
55.82
56.61
57.84
60.50
65.22
71.77
79.03
85.18
88.49
88.15
84.88
80.85
78.62
79.74
83.28
85.55
81.00
63.99
30.70
-19.80
-85.07
-159.52
-234.91
-301.38
-349.21
-371.36
-365.98
-337.57
-295.96
-252.82
-217.48
-193.90
-180.15
-170.72
-159.90
-144.48
-124.37
-101.57
-78.36
-56.12
-35.25
-15.77
1.94
16.99
28.26
35.15
37.90
37.70
36.22
35.03
35.15
36.67
38.84
40.40
40.13
37.45
32.86
27.85
24.36
23.90
26.76
31.80
37.02
40.55
41.55
40.49
38.61
37.06
36.32
36.04
35.44
34.09
32.27
30.90
30.78
32.06
34.02
35.44
35.29
33.20
29.64
25.33
20.75
15.68
9.32
0.71
-10.66
-24.31
-38.62
-51.05
-58.79
-59.57
-52.39
-37.99
-18.77
1.80
20.22
33.99
42.28
45.77
46.18
45.42
44.84
44.91
45.28
45.11
43.61
40.54
36.54
32.98
31.29
32.22
35.28
38.95
41.32
41.06
37.94
32.79
26.96
21.78
18.22
17.02
18.80
24.03
32.65
43.81
55.87
66.95
75.66
81.70
85.84
89.41
93.57
98.81
104.98
111.49
117.75
123.37
128.27
132.59
136.68
141.01
146.05
152.11
159.18
166.90
174.83
182.70
190.65
199.26
209.27
221.23
235.20
250.52
265.83
278.99
287.28
287.80
278.16
257.18
225.43
185.22
140.05
93.77
49.65
9.94
-24.16
-52.27
-74.46
-91.15
-102.98
-110.84
-115.68
-118.40
-119.62
-119.56
-118.18
-115.40
-111.40
-106.96
-103.37
-102.12
-104.33
-110.21
-118.77
-128.09
-135.92
-140.46
-140.85
-137.45
-131.50
-124.71
-118.69
-114.52
-112.56
-112.38
-113.05
-113.63
-113.62
-113.20
-113.06
-113.88
-115.68
-117.55
-117.84
-114.91
-108.11
-98.37
-88.23
-81.02
-79.53
-84.93
-96.24
-110.72
-125.05
-136.61
-144.24
-148.33
-150.05
-150.42
-149.64
-146.96
-141.33
-132.01
-119.19
-104.00
-88.12
-73.25
-60.60
-50.77
-43.77
-39.18
-36.34
-34.45
-32.69
-30.40
-27.21
-23.19
-18.79
-14.67
-11.55
-10.08
-10.82
-14.17
-20.19
-28.42
-37.68
-46.26
-52.34
-54.69
-53.12
-48.72
-43.49
-39.64
-38.95
-42.27
-49.36
-58.93
-68.89
-76.78
-80.38
-78.38
-70.98
-59.91
-47.93
-37.91
-31.82
-30.30
-32.77
-38.07
-45.07
-52.87
-60.63
-67.08
-70.48
-68.92
-61.00
-46.56
-26.76
-3.71
20.18
42.81
62.71
78.97
91.08
98.90
102.74
103.43
102.30
100.83
100.20
100.87
102.49
104.12
104.77
103.85
101.43
98.13
94.65
91.43
88.39
85.09
81.03
76.06
70.51
65.02
60.16
56.03
52.25
48.13
43.15
37.24
30.85
24.67
19.35
15.24
12.41
10.77
10.22
10.65
11.88
13.55
15.24
16.57
17.32
17.53
17.24
16.38
14.67
11.73
7.35
1.66
-4.85
-11.53
-17.88
-23.75
-29.45
-35.54
-42.49
-50.35
-58.56
-66.06
-71.62
-74.17
-73.13
-68.43
-60.42
-49.71
-37.02
-23.16
-9.05
4.34
16.11
25.59
32.53
37.09
39.81
41.40
42.51
43.59
44.75
45.80
46.38
46.11
44.85
42.74
40.13
37.43
34.96
32.85
31.05
29.44
27.92
26.40
24.77
22.87
20.55
17.78
14.78
12.00
10.03
9.28
9.78
11.11
12.55
13.40
13.31
12.41
11.07
9.63
8.17
6.43
4.09
1.03
-2.56
-6.26
-9.67
-12.68
-15.44
-18.20
-21.00
-23.53
-25.21
-25.44
-24.04
-21.37
-18.31
-15.87
-14.70
-14.74
-15.17
-14.85
-12.93
-9.38
-5.06
-1.30
0.76
0.77
-0.73
-2.63
-3.95
-4.20
-3.45
-2.06
-0.22
2.06
4.83
7.83
10.47
12.00
11.93
10.33
7.89
5.51
3.88
3.15
2.93
2.66
1.95
0.79
-0.50
-1.55
-2.13
-2.27
-2.23
-2.28
-2.62
-3.34
-4.45
-5.95
-7.90
-10.29
-13.00
-15.70
-17.91
-19.08
-18.80
-17.02
-14.05
-10.53
-7.13
-4.30
-2.09
-0.19
1.85
4.35
7.23
10.15
12.67
14.48
15.58
16.22
16.66
17.04
17.30
17.30
16.89
16.12
15.12
14.12
13.28
12.67
12.26
11.95
11.63
11.19
10.62
9.93
9.22
8.56
7.96
7.32
6.44
5.12
3.22
0.77
-2.10
-5.17
-8.18
-10.95
-13.38
-15.45
-17.26
-19.01
-20.90
-23.11
-25.67
-28.46
-31.24
-33.66
-35.41
-36.26
-36.08
-34.87
-32.71
-29.76
-26.23
-22.30
-18.08
-13.64
-8.99
-4.19
0.56
5.05
8.98
12.16
14.48
16.00
16.86
17.26
17.42
17.49
17.61
17.90
18.42
19.18
20.15
21.25
22.37
23.31
23.91
23.98
23.46
22.40
20.94
19.23
17.42
15.56
13.65
11.66
9.56
7.36
5.09
2.81
0.61
-1.42
-3.21
-4.72
-6.01
-7.26
-8.75
-10.75
-13.45
-16.82
-20.57
-24.19
-27.09
-28.76
-28.85
-27.29
-24.30
-20.27
-15.73
-11.16
-6.92
-3.14
0.19
3.21
6.08
8.90
11.65
14.23
16.47
18.19
19.29
19.73
19.59
19.03
18.28
17.53
16.91
16.47
16.18
15.96
15.78
15.58
15.34
15.07
14.76
14.49
14.33
14.30
14.36
14.34
14.00
13.11
11.51
9.16
6.16
2.67
-1.14
-5.10
-9.04
-12.76
-16.07
-18.82
-21.00
-22.76
-24.45
-26.43
-28.95
-31.96
-35.10
-37.82
-39.49
-39.70
-38.24
-35.18
-30.77
-25.24
-18.80
-11.60
-3.85
4.09
11.72
18.40
23.58
26.95
28.55
28.74
28.07
27.01
25.83
24.59
23.22
21.72
20.21
18.90
17.95
17.41
17.16
17.05
16.96
16.90
16.93
17.03
17.05
16.74
15.87
14.35
12.29
9.91
7.42
4.90
2.30
-0.50
-3.56
-6.82
-10.13
-13.40
-16.61
-19.85
-23.15
-26.38
-29.28
-31.43
-32.46
-32.14
-30.46
-27.58
-23.70
-19.04
-13.73
-7.92
-1.81
4.35
10.20
15.34
19.39
22.04
23.17
22.93
21.74
20.14
18.69
17.71
17.25
17.03
16.65
15.64
13.71
10.76
6.93
2.56
-1.94
-6.23
-10.18
-13.88
-17.57
-21.50
-25.85
-30.64
-35.80
-41.27
-47.03
-53.02
-59.15
-65.27
-71.22
-76.94
-82.43
-87.53
-91.80
-94.47
-94.61
-91.47
-84.91
-75.43
-64.03
-51.86
-39.84
-28.42
-17.72
-7.70
1.58
9.88
16.88
22.38
26.46
29.46
31.95
34.43
37.21
40.41
44.05
48.34
53.61
60.16
67.95
76.33
84.09
89.94
92.93
92.89
90.38
86.33
81.58
76.56
71.23
65.33
58.71
51.57
44.39
37.82
32.38
28.27
25.32
23.01
20.64
17.55
13.42
8.39
3.28
-0.58
-1.74
0.98
8.01
18.78
31.83
45.17
56.68
64.54
67.56
65.32
58.29
47.90
36.29
25.86
18.54
15.16
15.26
17.51
20.38
22.93
25.02
27.06
29.35
31.66
33.16
32.88
30.33
25.78
20.20
14.58
9.47
4.55
-1.05
-8.28
-17.56
-28.47
-39.81
-50.02
-57.60
-61.55
-61.59
-58.26
-52.82
-47.01
-42.73
-41.48
-43.85
-49.16
-55.51
-60.29
-61.02
-56.36
-46.80
-34.64
-23.23
-15.76
-13.91
-17.20
-23.29
-29.02
-31.62
-29.61
-22.82
-11.87
2.44
19.29
37.58
55.50
70.56
80.22
82.98
79.14
70.50
59.35
47.20
34.19
19.55
2.69
-15.72
-33.51
-47.82
-56.32
-58.31
-54.88
-48.25
-40.66
-33.47
-27.12
-21.41
-16.24
-11.91
-9.09
-8.39
-9.95
-13.36
-17.78
-22.39
-26.68
-30.52
-33.90
-36.70
-38.55
-38.78
-36.66
-31.39
-22.33
-9.19
7.54
26.22
44.05
57.65
64.09
62.03
52.27
37.45
21.15
6.73
-3.50
-8.59
-8.80
-5.25
0.37
6.10
10.02
10.70
7.60
1.32
-6.56
-14.00
-19.10
-20.59
-18.05
-11.89
-3.20
6.45
15.25
21.56
24.23
22.98
18.51
12.33
6.23
1.79
-0.07
0.80
3.85
8.18
12.71
16.35
18.12
17.36
13.93
8.33
1.59
-5.06
-10.69
-15.06
-18.59
-22.16
-26.62
-32.48
-39.71
-47.85
-56.08
-63.52
-69.33
-72.95
-74.16
-73.35
-71.50
-69.81
-69.33
-70.15
-71.11
-70.07
-64.94
-54.96
-41.36
-26.77
-13.78
-3.32
5.88
16.44
30.59
48.57
68.18
85.66
97.39
101.40
97.96
89.15
77.81
66.48
56.54
48.10
40.38
32.34
23.57
14.60
6.86
1.71
-0.50
-0.85
-1.47
-4.42
-10.64
-19.49
-29.32
-38.35
-45.55
-51.01
-55.76
-61.23
-68.74
-79.02
-92.10
-107.23
-122.98
-137.46
-148.36
-153.29
-150.15
-137.70
-116.26
-87.87
-56.05
-24.93
1.86
21.94
34.48
39.79
38.79
32.57
22.25
9.19
-5.00
-18.65
-30.49
-40.01
-47.45
-53.19
-57.12
-58.28
-55.13
-46.36
-31.86
-13.17
6.87
25.17
39.72
50.51
59.49
69.61
83.49
102.40
126.00
152.73
180.55
207.61
232.75
255.75
277.28
298.48
320.55
344.07
368.72
393.49
416.99
437.99
455.62
469.22
478.17
481.78
479.65
472.02
459.92
444.63
426.82
405.89
380.06
347.39
306.92
259.51
207.74
154.79
103.05
53.20
4.08
-46.45
-100.09
-156.96
-215.14
-271.17
-321.28
-362.69
-394.28
-416.39
-430.11
-436.44
-435.87
-428.71
-415.57
-397.86
-377.66
-357.06
-337.34
-318.44
-299.12
-277.67
-252.94
-224.98
-195.07
-165.07
-136.51
-110.01
-85.22
-61.38
-38.15
-16.20
2.73
16.32
22.50
20.42
10.90
-3.53
-19.37
-33.40
-43.82
-50.73
-55.73
-60.89
-67.55
-75.93
-85.33
-94.89
-104.22
-113.46
-122.88
-132.41
-141.58
-149.88
-157.16
-163.71
-170.14
-176.99
-184.53
-192.77
-201.39
-209.52
-215.55
-217.29
-212.86
-201.69
-185.08
-165.77
-146.60
-129.08
-112.87
-96.36
-78.01
-57.51
-36.04
-15.49
2.77
18.45
32.30
45.23
57.50
68.58
77.66
84.40
89.35
93.55
97.64
101.23
102.94
101.22
95.58
87.36
79.46
75.20
76.82
84.51
96.43
109.70
121.81
131.49
138.90
145.02
150.72
156.24
161.15
164.72
166.50
166.59
165.61
164.31
163.09
161.89
160.32
158.21
155.88
154.15
153.75
154.66
155.62
154.36
148.42
136.13
117.47
94.12
69.01
45.31
25.55
10.96
1.35
-4.55
-8.63
-12.70
-17.92
-24.58
-32.17
-39.75
-46.41
-51.72
-55.96
-60.13
-65.83
-74.88
-88.75
-107.86
-131.10
-155.72
-177.99
-194.19
-201.52
-198.51
-184.85
-160.83
-126.95
-84.09
-33.94
20.66
75.83
127.47
172.21
208.20
235.22
254.32
267.12
275.37
280.73
284.79
289.01
294.61
302.35
312.38
324.09
336.00
345.78
350.41
346.73
332.25
305.83
267.97
220.66
166.74
109.37
51.70
-3.16
-52.27
-93.20
-124.71
-147.38
-163.70
-177.63
-193.48
-214.66
-242.65
-276.46
-312.79
-346.71
-372.73
-386.12
-384.33
-367.74
-339.89
-306.54
-274.18
-248.22
-231.69
-224.71
-224.98
-228.91
-232.75
-233.64
-229.87
-220.92
-207.07
-189.18
-168.44
-146.41
-124.77
-105.11
-88.60
-75.69
-66.00
-58.51
-51.82
-44.58
-35.82
-25.19
-13.05
-0.32
11.82
22.30
30.39
35.85
38.88
39.94
39.59
38.37
36.75
35.03
33.45
32.06
30.82
29.49
27.72
25.18
21.66
17.26
12.29
7.30
2.76
-1.07
-4.23
-6.99
-9.69
-12.52
-15.43
-18.22
-20.73
-23.00
-25.15
-27.32
-29.50
-31.67
-33.85
-36.14
-38.66
-41.38
-44.00
-45.73
-45.66
-43.19
-38.61
-33.09
-28.20
-25.35
-25.23
-27.68
-31.46
-35.03
-37.39
-38.97
-41.40
-46.54
-55.59
-68.56
-84.30
-100.15
-113.10
-121.06
-124.34
-125.36
-127.31
-133.12
-144.72
-162.68
-184.49
-205.32
-219.24
-222.07
-212.33
-190.77
-159.65
-121.97
-80.47
-35.01
16.78
78.14
149.80
229.60
314.08
399.67
483.16
550.94
585.14
574.76
526.63
459.34
390.84
331.83
285.74
251.09
224.08
205.44
193.80
189.38
190.61
193.86
194.78
189.46
174.89
149.48
114.90
73.51
31.92
-3.59
-29.06
-43.55
-49.19
-50.39
-51.89
-55.96
-62.06
-67.25
-69.83
-70.67
-72.65
-79.02
-91.54
-109.46
-129.25
-146.35
-156.71
-159.24
-155.86
-149.98
-144.66
-141.41
-139.85
-138.34
-135.20
-129.39
-121.24
-111.96
-102.89
-94.68
-87.13
-79.37
-70.35
-59.27
-45.75
-30.01
-12.84
4.62
21.14
35.60
47.04
54.53
57.12
53.90
44.52
29.71
11.49
-7.08
-22.60
-32.07
-33.42
-25.41
-7.62
19.78
55.45
95.97
135.80
168.45
188.38
192.64
181.93
159.89
132.23
104.73
81.42
63.87
51.46
41.80
30.82
13.95
-13.02
-51.31
-98.60
-150.03
-199.62
-241.34
-270.57
-285.24
-285.50
-273.74
-252.23
-222.48
-185.62
-142.69
-94.37
-41.61
13.02
67.16
110.95
135.32
140.52
135.64
130.06
126.83
125.07
117.54
100.25
74.67
48.32
30.68
27.96
39.54
60.52
83.34
100.84
110.07
112.46
113.38
118.94
132.54
153.55
178.61
203.60
225.20
242.46
255.65
265.80
273.35
277.32
275.62
266.50
249.58
225.97
198.06
168.01
137.28
106.39
75.22
43.83
13.34
-14.16
-36.58
-52.90
-64.00
-72.13
-79.83
-88.68
-98.58
-107.96
-114.76
-117.70
-116.94
-114.12
-111.36
-110.34
-111.63
-114.50
-117.10
-117.15
-112.98
-104.78
-95.12
-87.68
-85.69
-90.49
-101.14
-115.12
-130.09
-145.67
-164.02
-188.72
-221.18
-259.14
-297.47
-330.68
-355.05
-369.56
-375.38
-374.96
-370.67
-362.56
-349.23
-330.03
-306.50
-281.79
-258.78
-238.61
-221.26
-205.58
-187.98
-163.42
-127.55
-78.34
-16.00
58.08
142.21
241.27
346.78
440.47
505.21
534.65
532.79
509.02
473.93
441.91
414.74
390.17
366.21
342.15
318.11
293.86
268.37
238.80
203.89
162.56
115.59
67.16
23.69
-9.15
-29.26
-38.59
-41.85
-43.88
-48.84
-58.17
-70.39
-82.39
-91.39
-96.31
-97.53
-96.22
-93.30
-89.99
-87.14
-85.19
-84.23
-84.15
-84.58
-84.89
-84.39
-82.18
-77.98
-71.81
-63.97
-54.62
-43.77
-31.52
-18.35
-5.75
4.95
12.85
17.85
20.61
22.63
25.84
31.56
40.18
49.20
55.41
55.47
46.43
26.17
-5.60
-47.15
-95.61
-146.65
-197.33
-243.43
-280.32
-305.05
-318.10
-322.89
-324.37
-327.54
-333.70
-342.37
-347.76
-341.17
-315.27
-267.39
-199.08
-114.74
-20.68
91.10
212.18
324.71
413.79
475.38
512.35
528.16
531.24
520.39
495.54
458.19
415.09
375.22
344.67
321.41
301.39
279.35
251.45
219.77
188.91
165.68
154.95
156.51
165.32
175.36
182.58
185.47
185.26
181.40
172.14
155.38
130.55
100.10
70.23
48.04
37.71
39.01
46.27
51.92
50.07
38.72
19.62
-3.33
-26.67
-49.01
-70.30
-91.39
-112.45
-132.74
-151.18
-167.24
-181.31
-194.77
-209.49
-226.99
-247.66
-270.40
-292.64
-310.93
-322.16
-324.68
-319.18
-308.43
-296.11
-285.30
-277.21
-271.03
-264.70
-256.38
-245.50
-233.04
-220.83
-210.42
-202.46
-196.78
-193.16
-192.09
-194.83
-202.64
-215.51
-231.35
-246.12
-255.07
-254.60
-243.49
-223.28
-197.29
-169.26
-142.25
-118.26
-98.40
-83.46
-74.13
-70.55
-71.93
-75.97
-79.13
-77.59
-68.67
-51.96
-29.49
-4.80
18.70
39.24
57.32
75.42
96.88
124.69
160.66
205.29
258.07
317.69
381.81
446.93
508.37
560.99
600.31
624.13
633.22
630.85
621.12
607.06
589.86
569.37
545.46
519.16
492.29
466.03
439.41
409.06
370.63
321.11
260.64
192.32
120.77
49.72
-19.28
-86.60
-153.07
-218.85
-283.02
-344.03
-400.42
-450.82
-493.41
-525.71
-544.42
-545.94
-527.78
-489.24
-431.53
-357.21
-269.69
-173.36
-74.33
19.07
96.92
149.91
172.19
163.69
130.14
80.87
25.31
-29.93
-82.12
-131.53
-179.33
-226.21
-272.30
-317.72
-363.09
-409.30
-456.57
-503.49
-546.85
-582.29
-605.21
-612.15
-601.62
-574.57
-534.28
-485.69
-434.20
-384.24
-338.14
-295.89
-255.91
-216.36
-176.36
-136.50
-98.29
-63.12
-31.30
-1.89
27.01
57.54
91.35
128.80
168.71
208.30
243.66
270.47
285.15
286.07
274.44
254.35
231.74
212.49
200.41
195.87
195.87
195.33
189.15
174.13
149.89
118.85
85.32
54.50
31.33
19.44
20.45
33.49
55.27
80.93
105.19
123.77
134.33
136.77
133.16
127.06
122.47
122.58
128.75
139.96
153.17
164.40
170.06
168.09
158.26
141.59
119.67
93.95
65.71
36.32
7.51
-18.62
-39.79
-53.99
-59.97
-57.65
-48.22
-33.96
-17.51
-0.96
14.92
30.74
47.64
66.06
84.78
100.76
110.14
109.59
97.65
75.17
45.10
11.88
-19.40
-43.74
-57.25
-58.04
-46.75
-26.41
-1.18
25.06
49.99
72.84
93.62
111.85
125.96
133.56
132.46
121.62
101.56
74.26
42.78
10.98
-16.74
-36.10
-43.84
-38.88
-22.85
0.26
25.40
47.98
65.00
75.39
79.50
78.40
73.23
65.06
54.74
42.90
29.85
15.55
-0.20
-17.42
-35.58
-53.37
-68.71
-78.99
-81.68
-75.13
-59.38
-36.47
-10.15
15.30
36.49
52.02
62.53
69.78
75.23
78.84
78.95
73.06
59.09
36.36
5.85
-30.07
-67.95
-103.55
-131.90
-147.73
-146.44
-125.61
-86.48
-34.35
22.56
75.33
116.58
141.77
149.06
138.40
110.91
69.20
18.24
-34.45
-79.97
-110.47
-121.90
-115.34
-96.15
-71.52
-47.67
-28.22
-14.24
-5.37
-0.78
0.59
0.43
1.14
5.42
15.40
31.78
53.55
78.45
103.73
126.81
145.85
160.02
169.71
176.45
182.55
190.27
200.85
213.91
227.52
239.07
246.24
247.84
243.94
235.42
223.33
208.52
191.41
172.04
150.16
125.33
96.99
64.68
28.22
-11.83
-53.87
-95.28
-133.16
-165.27
-190.94
-211.16
-227.87
-242.80
-256.54
-268.30
-276.60
-280.10
-278.15
-270.67
-257.62
-238.55
-212.90
-180.70
-143.42
-104.03
-66.41
-34.19
-9.73
6.44
15.43
19.45
20.95
21.77
22.66
23.40
23.37
22.23
20.30
18.46
17.58
18.02
19.55
21.60
23.82
26.37
29.65
33.89
38.76
43.34
46.56
47.66
46.48
43.29
38.48
32.42
25.43
18.04
11.02
5.26
1.36
-0.64
-1.34
-1.79
-3.11
-6.12
-11.13
-17.86
-25.53
-33.01
-39.02
-42.48
-42.80
-40.07
-35.05
-28.75
-22.03
-15.21
-8.17
-0.66
7.30
15.10
21.67
25.83
26.72
24.20
18.84
11.89
4.96
-0.27
-2.38
-0.59
4.97
13.23
22.42
30.51
35.80
37.28
34.84
29.15
21.43
13.13
5.69
0.26
-2.56
-2.82
-1.21
1.27
3.53
4.80
4.69
3.13
0.19
-4.03
-9.45
-15.96
-23.34
-31.27
-39.36
-47.18
-54.24
-59.98
-63.80
-65.21
-64.07
-60.67
-55.76
-50.23
-44.80
-39.78
-35.02
-30.12
-24.61
-18.18
-10.66
-2.13
7.06
16.20
24.29
30.34
33.73
34.63
33.86
32.69
32.18
32.88
34.68
37.10
39.61
41.85
43.53
44.39
44.10
42.44
39.41
35.38
30.97
26.79
23.16
20.07
17.23
14.30
11.09
7.63
4.18
1.07
-1.42
-3.19
-4.38
-5.37
-6.63
-8.48
-10.90
-13.40
-15.12
-15.15
-12.85
-7.99
-0.79
8.24
18.60
29.87
41.71
53.77
65.72
77.23
88.14
98.40
108.11
117.27
125.86
133.95
141.98
150.76
161.18
173.41
186.21
196.95
202.43
200.20
189.71
172.43
150.97
127.65
103.57
78.60
52.31
24.97
-1.91
-26.20
-46.20
-61.47
-72.88
-81.85
-89.39
-95.57
-99.90
-102.01
-102.31
-102.10
-102.97
-106.10
-111.76
-119.38
-127.99
-136.68
-144.85
-152.15
-158.34
-163.33
-167.28
-170.78
-174.83
-180.37
-187.93
-197.34
-207.87
-218.70
-229.34
-239.89
-250.72
-262.12
-274.18
-286.99
-300.82
-315.94
-331.94
-346.79
-356.72
-357.22
-344.90
-319.40
-283.88
-243.85
-204.69
-169.39
-137.51
-106.39
-73.23
-37.19
0.04
35.11
64.75
87.26
102.87
113.28
120.51
125.94
129.78
131.36
129.62
123.95
114.70
103.32
92.11
83.45
79.20
80.18
86.17
96.22
109.00
123.18
137.54
151.04
162.94
172.79
180.47
185.98
189.34
190.45
189.23
185.65
179.85
172.05
162.34
150.64
136.86
121.25
104.70
88.72
74.93
64.48
57.46
52.93
49.42
45.69
41.41
37.22
34.36
33.98
36.52
41.37
47.00
51.49
53.19
51.26
45.85
38.00
29.18
20.68
13.28
7.09
1.80
-2.86
-6.79
-9.42
-9.99
-8.04
-3.80
1.78
7.35
11.69
14.16
14.77
14.04
12.56
10.69
8.43
5.55
1.90
-2.31
-6.57
-10.17
-12.58
-13.63
-13.57
-12.89
-12.07
-11.41
-10.94
-10.62
-10.45
-10.52
-10.98
-11.85
-13.00
-14.15
-15.08
-15.66
-15.92
-15.98
-15.95
-16.04
-16.53
-17.87
-20.46
-24.45
-29.47
-34.65
-38.89
-41.28
-41.42
-39.46
-35.92
-31.31
-26.03
-20.38
-14.66
-9.34
-4.90
-1.64
0.47
1.78
2.84
4.11
5.81
7.88
10.03
11.85
12.97
13.16
12.44
11.11
9.64
8.49
7.86
7.63
7.45
6.99
6.07
4.77
3.26
1.66
-0.08
-2.07
-4.39
-6.92
-9.44
-11.73
-13.70
-15.49
-17.37
-19.65
-22.50
-25.90
-29.59
-33.08
-35.79
-37.11
-36.61
-34.16
-29.97
-24.49
-18.29
-11.82
-5.44
0.61
6.12
10.83
14.51
17.08
18.65
19.51
19.97
20.21
20.25
20.03
19.54
18.88
18.21
17.66
17.25
16.92
16.68
16.56
16.66
16.98
17.32
17.34
16.80
15.63
14.05
12.35
10.71
9.11
7.34
5.23
2.67
-0.39
-4.11
-8.74
-14.54
-21.47
-29.07
-36.55
-43.06
-47.99
-51.06
-52.13
-51.09
-47.78
-42.27
-34.98
-26.76
-18.58
-11.21
-4.90
0.49
5.33
9.88
14.19
18.20
21.78
24.83
27.23
28.81
29.43
29.10
28.12
26.89
25.77
24.89
24.10
23.21
22.13
20.95
19.86
18.90
17.97
16.87
15.45
13.76
11.96
10.22
8.53
6.79
4.83
2.61
0.19
-2.29
-4.73
-7.11
-9.49
-11.94
-14.55
-17.47
-20.95
-25.20
-30.21
-35.61
-40.68
-44.57
-46.63
-46.65
-44.78
-41.40
-36.86
-31.42
-25.32
-18.86
-12.44
-6.40
-0.88
4.24
9.22
14.18
18.97
23.20
26.45
28.50
29.41
29.41
28.78
27.73
26.43
25.06
23.81
22.78
21.92
21.03
19.86
18.28
16.37
14.36
12.56
11.12
10.08
9.31
8.66
7.95
7.00
5.65
3.77
1.39
-1.29
-3.92
-6.18
-7.97
-9.41
-10.88
-12.83
-15.52
-19.02
-23.07
-27.24
-30.97
-33.75
-35.10
-34.78
-32.77
-29.29
-24.82
-19.91
-15.05
-10.57
-6.53
-2.81
0.75
4.21
7.49
10.38
12.67
14.25
15.17
15.55
15.52
15.15
14.44
13.46
12.32
11.27
10.54
10.28
10.49
10.97
11.42
11.49
10.95
9.73
7.95
5.95
4.08
2.65
1.74
1.13
0.46
-0.64
-2.37
-4.67
-7.25
-9.76
-11.88
-13.44
-14.41
-14.84
-14.84
-14.55
-14.19
-13.95
-13.91
-13.93
-13.65
-12.54
-10.15
-6.40
-1.63
3.45
8.07
11.75
14.42
16.33
17.85
19.17
20.20
20.77
20.74
20.25
19.59
19.08
18.84
18.75
18.54
18.00
17.14
16.22
15.62
15.71
16.65
18.24
19.89
20.74
19.94
16.92
11.74
5.19
-1.41
-6.63
-9.51
-10.03
-9.28
-9.12
-11.45
-17.45
-27.11
-39.22
-51.97
-63.53
-72.67
-78.80
-81.84
-81.92
-79.26
-74.23
-67.41
-59.54
-51.37
-43.35
-35.59
-28.00
-20.54
-13.43
-6.98
-1.42
3.38
7.90
12.70
18.16
24.26
30.53
36.38
41.26
44.89
47.26
48.52
48.87
48.48
47.45
45.92
44.12
42.41
41.19
40.78
41.24
42.37
43.72
44.74
45.00
44.23
42.36
39.41
35.41
30.42
24.51
17.93
11.04
4.34
-1.71
-6.78
-10.79
-13.85
-16.18
-18.08
-19.87
-21.90
-24.54
-28.05
-32.48
-37.53
-42.65
-47.18
-50.64
-52.91
-54.24
-54.99
-55.40
-55.36
-54.49
-52.33
-48.64
-43.52
-37.32
-30.56
-23.64
-16.91
-10.53
-4.67
0.56
4.99
8.55
11.18
12.90
13.77
13.93
13.62
13.15
12.89
13.12
13.88
15.01
16.15
16.96
17.24
16.96
16.24
15.23
13.96
12.41
10.51
8.22
5.66
3.05
0.67
-1.24
-2.49
-3.10
-3.28
-3.46
-4.23
-6.20
-9.83
-15.22
-21.96
-29.19
-35.72
-40.36
-42.20
-40.84
-36.38
-29.38
-20.58
-10.72
-0.36
10.13
20.49
30.52
39.96
48.58
56.13
62.43
67.33
70.72
72.56
72.88
71.89
69.89
67.27
64.32
61.17
57.70
53.62
48.70
42.96
36.79
30.87
25.92
22.39
20.28
19.14
18.28
17.08
15.18
12.55
9.43
6.14
2.98
0.13
-2.43
-4.96
-7.94
-11.96
-17.51
-24.71
-33.19
-42.05
-50.19
-56.54
-60.42
-61.67
-60.60
-57.89
-54.32
-50.62
-47.30
-44.67
-42.83
-41.78
-41.52
-42.03
-43.21
-44.77
-46.23
-46.97
-46.48
-44.46
-40.88
-35.93
-29.85
-22.90
-15.33
-7.52
0.04
6.84
12.51
17.01
20.66
24.03
27.76
32.29
37.79
44.09
50.75
57.28
63.20
68.18
72.09
74.90
76.63
77.13
76.15
73.46
69.00
62.94
55.61
47.37
38.43
28.99
19.30
9.89
1.52
-5.12
-9.69
-12.54
-14.64
-17.29
-21.51
-27.54
-34.72
-41.73
-47.10
-49.86
-49.94
-48.13
-45.71
-43.84
-43.17
-43.70
-45.04
-46.78
-48.63
-50.40
-51.81
-52.33
-51.38
-48.57
-44.07
-38.53
-32.88
-27.78
-23.34
-19.07
-14.23
-8.39
-1.60
5.48
12.03
17.28
20.82
22.58
22.71
21.45
19.07
15.88
12.15
8.08
3.71
-1.04
-6.24
-11.69
-16.74
-20.38
-21.56
-19.70
-15.00
-8.50
-1.56
4.56
9.21
12.35
14.32
15.48
16.03
16.08
15.86
15.84
16.60
18.45
21.05
23.46
24.47
23.36
20.35
16.62
13.80
13.04
14.47
17.14
19.59
20.71
20.31
19.11
18.24
18.55
20.16
22.43
24.34
24.99
23.94
21.32
17.65
13.60
9.62
5.80
1.81
-2.89
-8.69
-15.48
-22.56
-28.86
-33.40
-35.70
-35.97
-34.82
-32.83
-30.22
-26.73
-22.01
-15.96
-9.02
-2.07
3.99
8.65
11.91
14.22
16.05
17.60
18.71
19.05
18.40
16.85
14.78
12.67
10.85
9.36
8.04
6.69
5.25
3.86
2.79
2.25
2.30
2.74
3.26
3.53
3.33
2.69
1.72
0.61
-0.52
-1.64
-2.79
-3.98
-5.12
-6.10
-6.82
-7.27
-7.54
-7.79
-8.19
-8.82
-9.69
-10.74
-11.90
-13.04
-14.00
-14.52
-14.33
-13.23
-11.15
-8.21
-4.68
-0.90
2.84
6.27
9.18
11.36
12.69
13.19
13.07
12.76
12.66
13.01
13.69
14.33
14.38
13.52
11.77
9.57
7.59
6.43
6.34
7.18
8.48
9.70
10.43
10.57
10.21
9.54
8.73
7.80
6.70
5.34
3.73
1.91
0.04
-1.75
-3.37
-4.78
-6.01
-7.05
-7.98
-8.95
-10.16
-11.89
-14.33
-17.49
-21.09
-24.58
-27.33
-28.81
-28.80
-27.43
-25.10
-22.28
-19.31
-16.31
-13.24
-9.97
-6.53
-3.07
0.15
2.90
5.11
6.86
8.33
9.66
10.84
11.73
12.18
12.15
11.80
11.49
11.59
12.37
13.85
15.78
17.79
19.47
20.53
20.86
20.50
19.63
18.45
17.10
15.66
14.11
12.40
10.49
8.37
6.07
3.70
1.36
-0.85
-2.92
-4.86
-6.82
-8.96
-11.43
-14.35
-17.68
-21.23
-24.67
-27.58
-29.58
-30.39
-29.89
-28.14
-25.33
-21.77
-17.83
-13.84
-10.06
-6.65
-3.69
-1.14
1.08
3.06
4.90
6.61
8.12
9.28
9.94
10.07
9.79
9.34
8.98
8.81
8.79
8.83
8.89
9.07
9.57
10.48
11.67
12.77
13.37
13.24
12.46
11.34
10.25
9.34
8.47
7.31
5.52
2.91
-0.44
-4.22
-8.02
-11.45
-14.33
-16.70
-18.84
-21.08
-23.65
-26.54
-29.52
-32.27
-34.52
-36.16
-37.08
-37.10
-35.91
-33.12
-28.55
-22.45
-15.49
-8.56
-2.42
2.59
6.57
9.89
12.88
15.62
18.01
19.84
21.00
21.53
21.54
21.12
20.23
18.76
16.72
14.30
11.89
9.93
8.68
8.11
7.87
7.50
6.65
5.21
3.36
1.36
-0.53
-2.23
-3.81
-5.36
-6.97
-8.69
-10.52
-12.45
-14.39
-16.13
-17.29
-17.48
-16.46
-14.32
-11.52
-8.65
-6.30
-4.75
-4.04
-3.96
-4.24
-4.63
-4.88
-4.73
-3.92
-2.28
0.18
3.22
6.50
9.70
12.59
15.12
17.29
19.08
20.44
21.32
21.66
21.47
20.67
19.15
16.81
13.72
10.22
6.93
4.53
3.47
3.80
5.14
6.94
8.76
10.42
11.99
13.64
15.38
17.04
18.31
18.90
18.74
17.95
16.77
15.40
13.85
12.02
9.76
7.01
3.87
0.57
-2.66
-5.71
-8.63
-11.57
-14.76
-18.29
-22.13
-26.07
-29.72
-32.71
-34.73
-35.61
-35.38
-34.12
-31.95
-28.93
-25.10
-20.52
-15.35
-9.90
-4.52
0.46
4.85
8.56
11.55
13.77
15.21
15.88
15.87
15.38
14.65
13.87
13.17
12.67
12.43
12.49
12.79
13.20
13.56
13.72
13.72
13.68
13.76
13.97
14.09
13.77
12.63
10.50
7.42
3.66
-0.41
-4.40
-7.93
-10.65
-12.35
-13.07
-13.17
-13.29
-14.15
-16.24
-19.53
-23.43
-27.02
-29.39
-30.04
-28.98
-26.69
-23.84
-20.93
-18.22
-15.72
-13.31
-10.91
-8.44
-5.88
-3.11
-0.03
3.37
6.94
10.35
13.16
15.09
16.05
16.19
15.74
14.86
13.65
12.12
10.41
8.81
7.69
7.32
7.72
8.58
9.38
9.56
8.81
7.24
5.27
3.45
2.17
1.44
0.89
-0.02
-1.72
-4.24
-7.22
-10.07
-12.32
-13.90
-15.12
-16.46
-18.35
-20.82
-23.55
-26.05
-27.90
-28.86
-28.90
-28.00
-26.13
-23.18
-19.16
-14.28
-8.98
-3.83
0.73
4.49
7.57
10.23
12.73
15.16
17.39
19.14
20.16
20.34
19.80
18.78
17.56
16.34
15.25
14.41
13.95
14.05
14.77
15.95
17.23
18.15
18.32
17.66
16.35
14.71
13.03
11.41
9.63
7.38
4.31
0.30
-4.43
-9.38
-13.82
-17.17
-19.11
-19.81
-19.74
-19.55
-19.71
-20.41
-21.55
-22.82
-23.89
-24.44
-24.22
-23.00
-20.67
-17.25
-12.98
-8.24
-3.52
0.80
4.49
7.55
10.16
12.56
14.93
17.27
19.46
21.27
22.52
23.17
23.30
23.02
22.44
21.60
20.56
19.44
18.47
17.84
17.71
18.03
18.57
19.02
19.09
18.54
17.25
15.24
12.68
9.87
7.17
4.88
3.06
1.50
-0.20
-2.44
-5.40
-8.87
-12.42
-15.46
-17.61
-18.74
-19.09
-19.12
-19.32
-20.02
-21.27
-22.80
-24.23
-25.21
-25.53
-25.07
-23.67
-21.11
-17.15
-11.79
-5.41
1.20
7.15
11.86
15.25
17.74
19.94
22.21
24.46
26.24
27.08
26.79
25.57
23.91
22.27
20.90
19.77
18.72
17.62
16.47
15.41
14.58
14.03
13.72
13.53
13.34
13.07
12.69
12.14
11.35
10.25
8.81
7.12
5.26
3.31
1.26
-0.92
-3.19
-5.45
-7.49
-9.26
-10.86
-12.63
-14.91
-17.84
-21.24
-24.66
-27.58
-29.62
-30.61
-30.49
-29.31
-27.11
-23.96
-20.10
-15.85
-11.57
-7.50
-3.79
-0.46
2.46
4.98
7.11
8.95
10.65
12.25
13.59
14.35
14.20
13.09
11.32
9.51
8.28
7.99
8.59
9.75
10.99
11.93
12.38
12.32
11.82
10.99
9.99
8.98
8.11
7.42
6.82
6.11
5.01
3.36
1.13
-1.53
-4.36
-7.07
-9.38
-11.20
-12.59
-13.80
-15.21
-17.18
-19.86
-23.12
-26.50
-29.39
-31.21
-31.58
-30.45
-28.04
-24.70
-20.79
-16.61
-12.34
-8.15
-4.16
-0.54
2.59
5.15
7.17
8.76
10.03
11.05
11.77
12.12
12.06
11.64
11.06
10.52
10.13
9.86
9.55
9.06
8.38
7.67
7.13
6.92
7.00
7.14
7.03
6.49
5.52
4.32
3.18
2.25
1.55
0.85
-0.04
-1.23
-2.62
-4.01
-5.23
-6.29
-7.38
-8.74
-10.55
-12.84
-15.54
-18.54
-21.74
-24.99
-28.03
-30.46
-31.80
-31.72
-30.10
-27.19
-23.36
-19.08
-14.70
-10.44
-6.36
-2.42
1.41
5.14
8.62
11.60
13.80
15.07
15.49
15.40
15.26
15.39
15.88
16.53
17.10
17.43
17.58
17.71
17.93
18.15
18.14
17.68
16.70
15.35
13.90
12.52
11.26
10.00
8.64
7.13
5.51
3.87
2.21
0.46
-1.45
-3.47
-5.38
-6.89
-7.77
-8.09
-8.14
-8.40
-9.25
-10.87
-13.18
-15.95
-18.83
-21.45
-23.36
-24.16
-23.58
-21.64
-18.69
-15.27
-11.85
-8.59
-5.38
-1.94
1.82
5.71
9.32
12.23
14.28
15.51
16.11
16.21
15.80
14.87
13.47
11.80
10.17
8.82
7.85
7.29
7.08
7.18
7.49
7.90
8.19
8.21
7.90
7.39
6.86
6.46
6.18
5.86
5.28
4.29
2.91
1.26
-0.46
-2.11
-3.64
-5.09
-6.55
-8.14
-9.92
-11.84
-13.77
-15.41
-16.50
-16.83
-16.31
-15.02
-13.15
-10.84
-8.20
-5.27
-2.07
1.32
4.69
7.79
10.38
12.33
13.67
14.59
15.26
15.85
16.37
16.76
16.90
16.70
16.19
15.51
14.91
14.66
14.98
15.97
17.52
19.44
21.40
22.89
23.19
21.45
16.95
9.48
-0.38
-11.33
-21.74
-30.21
-36.05
-39.28
-40.40
-39.90
-38.14
-35.38
-32.05
-28.83
-26.52
-25.64
-26.09
-27.17
-27.88
-27.39
-25.35
-21.95
-17.67
-13.05
-8.53
-4.34
-0.57
2.77
5.76
8.55
11.27
13.89
16.23
17.99
18.94
19.05
18.57
17.89
17.28
16.81
16.30
15.55
14.55
13.50
12.74
12.49
12.73
13.14
13.40
13.28
12.78
11.98
10.89
9.48
7.71
5.68
3.67
1.99
0.81
0.02
-0.69
-1.66
-3.03
-4.81
-6.91
-9.31
-12.12
-15.39
-19.02
-22.62
-25.67
-27.65
-28.21
-27.24
-24.77
-20.97
-16.10
-10.60
-4.98
0.24
4.76
8.60
12.04
15.37
18.68
21.78
24.33
26.04
26.85
26.98
26.81
26.72
26.97
27.67
28.80
30.23
31.79
33.25
34.41
35.18
35.71
36.39
37.68
39.93
42.96
45.89
47.20
45.02
37.80
24.89
6.98
-14.00
-35.33
-54.28
-68.74
-77.74
-81.46
-80.98
-77.89
-73.83
-70.12
-67.55
-66.27
-65.94
-65.80
-65.05
-62.97
-59.19
-53.80
-47.26
-40.33
-33.76
-28.00
-23.09
-18.63
-14.03
-8.80
-2.81
3.73
10.32
16.43
21.62
25.59
28.12
29.09
28.57
26.94
24.82
22.91
21.70
21.30
21.49
21.91
22.40
23.04
24.08
25.69
27.79
30.00
31.91
33.17
33.69
33.56
32.86
31.57
29.65
27.07
24.07
21.02
18.34
16.22
14.47
12.56
9.89
6.13
1.44
-3.57
-8.07
-11.46
-13.53
-14.48
-14.68
-14.40
-13.66
-12.35
-10.42
-8.11
-5.87
-4.17
-3.24
-2.94
-2.78
-2.23
-1.01
0.81
2.82
4.47
5.37
5.42
4.76
3.76
2.76
2.02
1.59
1.42
1.50
2.05
3.41
5.82
9.12
12.65
15.41
16.59
15.99
14.16
12.01
10.23
8.91
7.54
5.50
2.57
-0.78
-3.78
-5.79
-6.82
-7.52
-8.82
-11.34
-15.04
-19.31
-23.25
-26.17
-27.82
-28.44
-28.50
-28.35
-28.03
-27.21
-25.44
-22.45
-18.38
-13.75
-9.26
-5.46
-2.53
-0.26
1.73
3.75
5.88
7.92
9.53
10.37
10.37
9.71
8.79
7.99
7.54
7.45
7.51
7.50
7.31
6.94
6.46
5.92
5.31
4.57
3.66
2.60
1.46
0.29
-0.91
-2.13
-3.33
-4.48
-5.56
-6.64
-7.87
-9.37
-11.12
-12.92
-14.48
-15.56
-16.20
-16.68
-17.38
-18.62
-20.43
-22.59
-24.65
-26.15
-26.64
-25.78
-23.31
-19.14
-13.45
-6.68
0.44
7.22
13.14
18.12
22.38
26.26
29.95
33.35
36.19
38.17
39.23
39.48
39.17
38.51
37.65
36.71
35.85
35.27
35.13
35.36
35.71
35.76
35.24
34.10
32.55
30.87
29.17
27.29
24.82
21.34
16.73
11.29
5.63
0.52
-3.53
-6.44
-8.53
-10.30
-12.12
-14.01
-15.72
-16.89
-17.44
-17.66
-18.09
-19.28
-21.40
-24.20
-27.14
-29.63
-31.27
-31.98
-31.89
-31.14
-29.74
-27.60
-24.55
-20.50
-15.56
-10.09
-4.64
0.18
3.86
6.14
7.09
7.00
6.22
5.03
3.53
1.68
-0.55
-3.11
-5.84
-8.52
-10.93
-12.87
-14.19
-14.76
-14.55
-13.72
-12.58
-11.57
-10.99
-10.89
-11.05
-11.11
-10.83
-10.21
-9.50
-8.97
-8.81
-9.05
-9.63
-10.45
-11.42
-12.45
-13.44
-14.29
-14.91
-15.28
-15.49
-15.63
-15.73
-15.75
-15.55
-14.97
-13.80
-11.88
-9.09
-5.45
-1.19
3.31
7.61
11.44
14.81
17.93
21.13
24.51
27.89
30.85
32.92
33.84
33.73
33.02
32.30
32.03
32.35
33.09
33.88
34.40
34.60
34.77
35.36
36.66
38.56
40.51
41.76
41.76
40.50
38.58
36.94
36.37
37.09
38.58
39.71
39.12
35.69
28.95
19.27
7.86
-3.60
-13.41
-20.43
-24.43
-26.18
-27.12
-28.74
-31.95
-36.64
-41.79
-45.87
-47.54
-46.26
-42.43
-37.17
-31.75
-27.08
-23.38
-20.33
-17.42
-14.33
-11.12
-8.06
-5.41
-3.17
-1.22
0.57
2.07
2.93
2.75
1.35
-1.05
-3.90
-6.49
-8.30
-9.09
-8.99
-8.32
-7.51
-6.90
-6.68
-6.84
-7.20
-7.51
-7.53
-7.15
-6.52
-5.91
-5.65
-6.00
-7.00
-8.52
-10.29
-11.97
-13.26
-14.02
-14.30
-14.40
-14.79
-15.94
-18.13
-21.35
-25.19
-29.07
-32.38
-34.66
-35.74
-35.62
-34.38
-32.10
-28.82
-24.62
-19.73
-14.51
-9.40
-4.81
-0.96
2.15
4.69
6.90
8.97
10.96
12.81
14.43
15.68
16.48
16.83
16.78
16.52
16.27
16.25
16.58
17.22
18.00
18.66
18.97
18.79
18.13
17.09
15.81
14.47
13.14
11.87
10.58
9.10
7.28
5.06
2.51
-0.13
-2.55
-4.58
-6.20
-7.62
-9.14
-11.02
-13.35
-16.08
-18.99
-21.77
-24.09
-25.58
-25.95
-25.01
-22.80
-19.56
-15.69
-11.60
-7.58
-3.73
-0.01
3.69
7.38
10.96
14.20
16.83
18.74
19.95
20.61
20.91
20.97
20.78
20.33
19.61
18.81
18.15
17.86
17.99
18.43
18.96
19.37
19.57
19.50
19.21
18.65
17.81
16.63
15.15
13.41
11.44
9.22
6.73
4.05
1.39
-0.98
-2.85
-4.24
-5.40
-6.73
-8.53
-10.85
-13.55
-16.29
-18.77
-20.74
-22.04
-22.53
-22.08
-20.68
-18.42
-15.57
-12.44
-9.30
-6.29
-3.43
-0.67
1.96
4.33
6.29
7.73
8.69
9.27
9.61
9.72
9.55
9.03
8.15
7.08
6.10
5.49
5.45
6.00
6.96
8.04
9.00
9.64
9.93
9.87
9.48
8.73
7.58
6.03
4.19
2.19
0.21
-1.66
-3.40
-5.07
-6.78
-8.62
-10.69
-13.07
-15.87
-19.11
-22.65
-26.20
-29.30
-31.52
-32.57
-32.36
-30.96
-28.55
-25.28
-21.33
-16.92
-12.33
-7.89
-3.88
-0.45
2.46
5.01
7.44
9.86
12.25
14.47
16.36
17.83
18.88
19.57
19.97
20.14
20.13
20.01
19.89
19.83
19.82
19.71
19.32
18.50
17.26
15.74
14.15
12.62
11.14
9.59
7.80
5.68
3.25
0.61
-2.02
-4.45
-6.53
-8.22
-9.67
-11.17
-13.12
-15.81
-19.30
-23.32
-27.30
-30.57
-32.59
-33.09
-32.11
-29.88
-26.73
-22.90
-18.57
-13.92
-9.17
-4.59
-0.42
3.17
6.14
8.56
10.54
12.15
13.45
14.45
15.15
15.59
15.80
15.81
15.63
15.31
14.94
14.65
14.52
14.56
14.64
14.55
14.11
13.29
12.21
11.11
10.20
9.58
9.11
8.54
7.55
5.91
3.62
0.87
-1.99
-4.62
-6.77
-8.38
-9.58
-10.64
-11.89
-13.65
-16.12
-19.31
-22.96
-26.55
-29.39
-30.87
-30.56
-28.47
-24.97
-20.61
-15.93
-11.26
-6.71
-2.30
1.98
6.12
10.06
13.75
17.06
19.86
21.92
23.09
23.36
22.91
22.11
21.28
20.62
20.16
19.78
19.43
19.10
18.85
18.71
18.59
18.38
17.94
17.28
16.49
15.69
14.96
14.26
13.47
12.43
11.01
9.15
6.93
4.49
2.03
-0.22
-2.19
-3.92
-5.64
-7.66
-10.23
-13.44
-17.16
-21.02
-24.52
-27.16
-28.56
-28.59
-27.38
-25.27
-22.64
-19.80
-16.87
-13.80
-10.46
-6.85
-3.06
0.62
3.90
6.58
8.63
10.14
11.25
12.02
12.47
12.57
12.34
11.90
11.45
11.20
11.26
11.62
12.14
12.59
12.79
12.63
12.11
11.33
10.41
9.47
8.53
7.51
6.26
4.62
2.51
-0.04
-2.86
-5.71
-8.37
-10.68
-12.64
-14.32
-15.86
-17.43
-19.19
-21.26
-23.67
-26.31
-28.88
-30.98
-32.17
-32.13
-30.82
-28.39
-25.16
-21.45
-17.42
-13.18
-8.80
-4.39
-0.13
3.76
7.16
10.08
12.61
14.85
16.82
18.43
19.53
19.98
19.73
18.79
17.25
15.29
13.12
11.06
9.39
8.34
7.95
8.11
8.58
9.12
9.57
9.90
10.12
10.24
10.20
9.91
9.29
8.30
6.97
5.33
3.43
1.26
-1.12
-3.63
-6.10
-8.36
-10.31
-12.02
-13.70
-15.64
-18.03
-20.91
-24.10
-27.25
-29.95
-31.82
-32.59
-32.06
-30.21
-27.12
-23.06
-18.32
-13.23
-8.05
-2.95
1.95
6.52
10.59
14.01
16.67
18.59
19.89
20.70
21.12
21.21
21.01
20.61
20.17
19.88
19.85
20.02
20.23
20.23
19.87
19.16
18.33
17.65
17.28
17.20
17.18
16.92
16.21
14.95
13.23
11.17
8.91
6.55
4.14
1.77
-0.42
-2.29
-3.72
-4.71
-5.40
-6.11
-7.25
-9.24
-12.38
-16.66
-21.71
-26.87
-31.32
-34.35
-35.58
-34.96
-32.74
-29.33
-25.09
-20.32
-15.20
-9.87
-4.46
0.89
5.99
10.67
14.70
17.89
20.14
21.42
21.84
21.63
21.05
20.27
19.42
18.51
17.56
16.67
15.94
15.50
15.32
15.27
15.15
14.76
14.06
13.11
12.04
10.92
9.80
8.68
7.59
6.59
5.70
4.87
3.91
2.62
0.84
-1.42
-4.01
-6.74
-9.47
-12.21
-15.07
-18.23
-21.68
-25.26
-28.61
-31.22
-32.65
-32.63
-31.18
-28.58
-25.27
-21.64
-17.94
-14.21
-10.40
-6.52
-2.68
0.90
4.00
6.50
8.40
9.81
10.82
11.48
11.82
11.85
11.65
11.33
10.99
10.73
10.58
10.57
10.70
10.97
11.32
11.65
11.81
11.66
11.11
10.15
8.89
7.50
6.13
4.83
3.54
2.07
0.21
-2.14
-4.86
-7.69
-10.25
-12.33
-13.93
-15.34
-16.97
-19.16
-22.03
-25.43
-28.96
-32.11
-34.41
-35.49
-35.15
-33.38
-30.34
-26.26
-21.46
-16.23
-10.86
-5.57
-0.60
3.91
7.86
11.26
14.16
16.61
18.64
20.19
21.18
21.57
21.40
20.75
19.75
18.55
17.27
16.06
15.09
14.53
14.46
14.86
15.58
16.34
16.87
16.96
16.49
15.49
14.04
12.23
10.13
7.80
5.23
2.47
-0.43
-3.39
-6.30
-9.09
-11.66
-13.96
-15.97
-17.76
-19.55
-21.57
-24.02
-26.86
-29.79
-32.20
-33.43
-32.99
-30.79
-27.14
-22.59
-17.69
-12.80
-8.12
-3.70
0.39
4.10
7.41
10.44
13.34
16.24
19.05
21.48
23.19
23.93
23.75
22.93
21.90
21.01
20.46
20.29
20.46
20.89
21.46
22.00
22.31
22.20
21.63
20.70
19.61
18.54
17.52
16.44
15.08
13.26
10.93
8.25
5.44
2.73
0.26
-1.91
-3.85
-5.65
-7.46
-9.46
-11.81
-14.60
-17.79
-21.16
-24.37
-27.01
-28.69
-29.18
-28.37
-26.31
-23.17
-19.25
-14.82
-10.18
-5.56
-1.12
3.00
6.69
9.78
12.19
13.81
14.70
14.97
14.79
14.32
13.66
12.91
12.16
11.55
11.22
11.27
11.67
12.24
12.76
13.03
13.03
12.81
12.49
12.06
11.40
10.37
8.90
7.04
4.94
2.73
0.45
-1.92
-4.39
-6.88
-9.25
-11.41
-13.42
-15.51
-17.93
-20.80
-23.98
-27.03
-29.42
-30.67
-30.57
-29.11
-26.55
-23.25
-19.55
-15.69
-11.80
-7.87
-3.89
0.11
4.01
7.58
10.60
12.92
14.51
15.46
15.90
15.96
15.71
15.20
14.49
13.68
12.89
12.23
11.72
11.31
10.93
10.48
9.99
9.51
9.12
8.83
8.51
7.95
6.97
5.49
3.56
1.37
-0.96
-3.32
-5.74
-8.17
-10.51
-12.57
-14.21
-15.47
-16.63
-18.10
-20.25
-23.16
-26.57
-30.01
-32.87
-34.73
-35.32
-34.61
-32.65
-29.58
-25.55
-20.81
-15.67
-10.49
-5.55
-1.03
2.95
6.37
9.23
11.51
13.20
14.33
14.96
15.16
14.99
14.45
13.54
12.33
10.97
9.69
8.78
8.44
8.66
9.28
9.95
10.38
10.37
9.96
9.35
8.82
8.63
8.91
9.65
10.69
11.72
12.43
12.47
11.71
10.19
8.21
6.14
4.27
2.58
0.82
-1.38
-4.23
-7.62
-11.05
-13.91
-15.62
-15.91
-14.83
-12.67
-9.82
-6.66
-3.48
-0.47
2.23
4.60
6.71
8.71
10.74
12.91
15.16
17.26
18.87
19.65
19.35
17.98
15.82
13.31
10.97
9.20
8.19
7.90
8.17
8.74
9.41
10.04
10.49
10.70
10.61
10.24
9.71
9.14
8.65
8.22
7.71
6.88
5.57
3.76
1.62
-0.60
-2.61
-4.27
-5.59
-6.68
-7.74
-9.00
-10.61
-12.68
-15.23
-18.14
-21.18
-23.92
-25.88
-26.63
-25.92
-23.82
-20.68
-16.98
-13.16
-9.45
-5.88
-2.40
0.98
4.15
6.86
8.96
10.40
11.32
11.88
12.19
12.28
12.15
11.88
11.72
11.91
12.63
13.81
15.10
16.09
16.49
16.27
15.69
15.07
14.68
14.53
14.36
13.80
12.50
10.38
7.55
4.23
0.59
-3.22
-7.08
-10.72
-13.90
-16.51
-18.72
-20.89
-23.47
-26.55
-29.71
-32.07
-32.87
-31.97
-30.05
-28.06
-26.69
-25.92
-24.99
-22.85
-18.75
-12.81
-6.02
0.09
4.62
7.39
8.55
8.24
6.33
2.71
-2.71
-9.86
-18.72
-28.36
-37.76
-46.73
-55.84
-65.86
-76.84
-87.82
-97.40
-105.05
-110.08
-112.46
-112.65
-110.38
-103.82
-89.70
-65.18
-29.90
12.57
58.14
103.15
145.16
180.38
202.86
208.75
199.52
186.39
172.78
159.82
148.19
135.29
119.69
100.33
76.96
49.91
19.31
-15.93
-55.38
-97.20
-137.98
-172.55
-195.17
-201.15
-188.98
-161.49
-125.65
-88.52
-55.37
-28.77
-8.30
8.12
22.88
37.44
51.93
65.11
76.24
85.15
91.95
96.77
99.43
99.75
97.87
94.53
91.00
89.30
91.21
97.07
105.25
112.35
114.39
108.34
93.37
71.10
45.06
19.13
-3.89
-22.92
-38.42
-51.43
-62.77
-72.56
-80.48
-86.25
-90.07
-92.68
-94.94
-97.39
-99.89
-101.66
-101.56
-98.58
-92.38
-83.48
-73.05
-62.39
-52.38
-43.11
-34.14
-24.98
-15.70
-7.26
-1.15
1.29
-0.58
-6.32
-14.65
-23.95
-32.74
-40.04
-45.38
-48.65
-49.79
-48.54
-44.46
-37.26
-27.36
-16.34
-6.93
-2.19
-4.32
-13.57
-28.20
-45.34
-62.48
-78.43
-93.28
-107.46
-120.67
-131.50
-138.07
-139.09
-134.61
-126.05
-115.40
-104.30
-93.56
-83.24
-72.96
-61.97
-49.30
-33.70
-14.10
9.97
38.05
68.56
99.29
128.25
154.32
177.42
198.47
218.93
240.84
266.71
298.07
333.74
368.68
394.44
401.36
382.65
337.20
271.26
197.00
127.61
72.50
34.62
11.59
-1.45
-8.13
-10.58
-9.29
-4.31
2.57
7.71
6.80
-2.61
-20.57
-44.86
-73.96
-108.60
-146.27
-181.45
-207.80
-221.61
-222.49
-217.88
-212.12
-208.84
-209.21
-211.45
-212.40
-206.65
-191.44
-165.80
-131.70
-93.59
-58.35
-30.12
-7.73
14.30
42.68
81.84
133.40
195.36
263.24
320.76
350.52
343.31
304.96
252.00
200.60
160.78
134.57
118.39
105.25
90.78
74.87
60.29
51.23
46.63
43.77
39.36
30.72
15.37
-6.39
-32.27
-59.73
-87.39
-115.54
-144.72
-175.78
-203.19
-223.26
-233.42
-233.25
-224.44
-209.79
-191.60
-169.76
-142.58
-108.70
-69.99
-30.69
3.91
29.68
45.14
51.82
53.64
55.00
59.35
67.75
79.97
94.90
110.68
124.50
132.51
130.64
115.92
87.82
48.61
3.68
-39.85
-75.26
-98.16
-107.64
-106.21
-98.59
-89.84
-83.84
-81.89
-82.73
-83.41
-80.94
-73.74
-62.38
-49.30
-37.53
-29.49
-25.93
-25.89
-27.58
-29.41
-30.65
-31.47
-32.33
-33.29
-33.64
-32.04
-27.28
-18.87
-7.43
5.62
18.87
31.68
44.53
58.60
74.88
93.12
111.43
126.78
136.12
137.68
131.67
120.15
106.10
92.32
80.56
71.23
63.71
56.82
49.46
41.04
31.65
21.96
13.00
5.77
0.90
-1.65
-2.77
-4.12
-7.85
-15.99
-29.80
-49.22
-72.58
-96.88
-118.56
-134.50
-142.89
-143.64
-137.96
-127.66
-114.33
-98.97
-82.10
-64.17
-45.96
-28.57
-13.13
-0.32
9.91
18.28
25.72
32.85
39.65
45.51
49.58
51.23
50.34
47.20
42.37
36.28
29.07
20.64
10.87
-0.20
-12.14
-24.30
-35.86
-46.20
-55.09
-62.77
-69.91
-77.37
-85.86
-95.63
-106.36
-117.26
-127.36
-135.88
-142.42
-146.99
-149.83
-151.26
-151.53
-150.79
-149.12
-146.29
-141.66
-133.94
-121.32
-101.74
-73.67
-36.64
8.14
57.82
108.46
155.74
195.85
226.06
245.01
252.52
249.57
238.02
220.37
199.48
178.04
158.11
140.77
126.03
113.15
101.16
89.54
78.60
69.36
63.04
60.42
61.33
64.65
68.63
71.57
72.31
70.32
65.58
58.28
48.81
37.83
26.33
15.53
6.29
-1.44
-8.67
-16.88
-27.23
-39.70
-52.95
-64.72
-72.47
-74.07
-68.10
-54.05
-32.43
-4.91
25.79
56.32
83.54
105.51
122.07
134.68
145.54
156.53
168.29
180.03
189.88
195.59
195.07
186.68
169.37
142.89
108.14
67.54
24.92
-15.28
-49.43
-76.16
-97.05
-115.90
-136.90
-162.49
-192.18
-222.92
-250.92
-273.88
-292.24
-308.68
-326.29
-346.39
-367.36
-385.28
-395.72
-395.69
-384.60
-363.77
-335.05
-299.65
-257.99
-210.45
-158.49
-105.12
-54.21
-9.15
28.52
59.56
86.13
110.38
133.19
153.82
170.58
181.95
187.54
188.28
185.79
181.53
176.15
169.45
160.84
150.03
137.27
123.23
108.56
93.39
77.40
60.16
41.75
23.09
5.86
-8.13
-17.60
-22.29
-22.89
-20.55
-16.23
-10.28
-2.46
7.69
20.42
35.39
51.75
68.36
84.19
98.51
111.01
121.58
130.02
135.87
138.46
137.20
131.82
122.50
109.74
94.13
76.20
56.42
35.44
14.30
-5.57
-22.82
-36.80
-48.12
-58.27
-68.88
-80.72
-93.08
-104.02
-111.19
-112.84
-108.53
-99.14
-85.47
-67.31
-43.43
-12.63
24.87
66.68
108.43
144.84
170.76
183.54
183.60
173.68
157.46
138.66
120.62
105.84
94.99
85.27
72.03
50.20
16.10
-31.10
-88.51
-149.98
-208.16
-257.20
-295.29
-322.12
-337.18
-338.99
-326.10
-298.13
-256.30
-203.08
-134.72
-56.09
20.66
82.61
124.40
149.14
163.75
174.33
183.24
188.24
183.27
164.24
132.73
96.54
65.85
48.19
44.84
50.44
56.12
53.59
41.59
24.18
8.78
1.02
1.84
7.82
13.54
14.50
8.66
-2.30
-14.34
-22.86
-25.14
-21.25
-13.29
-4.22
3.35
7.63
8.22
5.69
1.21
-4.51
-11.14
-18.40
-25.49
-30.91
-32.78
-29.51
-20.85
-8.19
5.76
18.29
28.02
35.54
42.75
51.40
61.72
72.17
80.45
84.97
85.95
85.33
85.57
88.19
93.03
98.45
102.38
103.39
101.17
96.34
89.81
82.11
73.15
62.44
49.40
33.78
15.78
-4.00
-24.64
-45.10
-64.44
-81.87
-96.94
-109.53
-119.80
-128.11
-134.96
-140.82
-145.95
-150.22
-152.99
-153.35
-150.51
-144.23
-135.14
-124.61
-114.30
-105.50
-98.85
-94.13
-90.74
-87.97
-85.39
-82.82
-80.12
-76.97
-72.79
-66.95
-59.04
-49.06
-37.52
-25.33
-13.54
-3.11
5.26
11.30
15.19
17.48
18.85
19.79
20.50
20.81
20.55
19.81
19.15
19.45
21.56
25.83
31.92
39.04
46.37
53.39
59.94
66.03
71.58
76.23
79.50
81.04
80.81
79.06
76.08
72.04
66.87
60.35
52.27
42.52
31.12
18.18
3.92
-11.22
-26.59
-41.40
-54.82
-66.27
-75.50
-82.55
-87.62
-90.84
-92.18
-91.44
-88.38
-82.95
-75.19
-65.34
-53.79
-41.16
-28.32
-16.37
-6.51
0.19
3.17
2.64
-0.43
-4.65
-8.64
-11.63
-13.63
-15.25
-17.24
-20.01
-23.25
-26.07
-27.53
-27.28
-25.94
-25.07
-26.48
-31.72
-41.54
-55.31
-71.06
-85.75
-95.61
-96.65
-84.82
-56.78
-11.47
48.91
119.29
192.53
261.18
319.03
362.17
389.82
404.08
407.69
402.30
387.82
362.78
325.96
278.55
225.02
173.00
131.16
105.09
95.09
96.94
104.25
111.09
116.14
118.61
114.07
99.62
74.33
37.59
-8.73
-59.74
-109.17
-151.92
-185.52
-209.98
-226.91
-239.64
-252.00
-266.41
-282.99
-300.67
-318.96
-337.29
-354.58
-369.19
-379.88
-385.70
-384.95
-374.72
-353.23
-321.67
-281.41
-232.82
-175.50
-110.98
-44.04
18.02
68.00
98.62
103.84
84.13
47.24
5.25
-31.72
-59.72
-80.90
-100.63
-110.54
-110.46
-107.26
-106.22
-103.37
-89.98
-61.02
-27.32
9.04
44.03
72.95
94.71
114.07
139.59
178.09
228.70
286.95
348.36
406.79
455.04
485.68
493.79
477.99
437.31
370.74
281.76
179.06
68.58
-34.14
-121.02
-198.19
-266.42
-325.86
-377.37
-418.15
-442.43
-445.65
-427.17
-391.87
-345.34
-290.46
-217.88
-131.65
-44.96
27.35
76.77
103.10
113.92
117.73
121.18
126.34
129.91
129.62
122.61
111.49
101.58
97.58
104.32
124.13
154.10
185.90
211.81
227.71
234.45
235.91
224.58
199.14
165.08
129.92
96.64
64.87
34.13
6.32
-15.41
-28.76
-30.91
-21.02
-1.56
22.05
42.89
54.50
51.62
30.85
-8.29
-59.75
-113.42
-158.58
-187.69
-198.85
-196.55
-189.92
-184.70
-186.95
-196.46
-207.01
-209.83
-198.32
-171.69
-135.30
-98.06
-68.11
-49.78
-41.08
-36.54
-30.90
-21.66
-9.11
4.90
18.69
31.74
43.32
52.78
58.58
58.53
50.98
36.51
18.53
2.88
-4.16
1.45
20.21
48.33
78.48
101.84
110.93
101.90
75.78
37.99
-3.70
-41.35
-69.15
-84.61
-88.55
-84.03
-74.85
-64.26
-54.11
-44.97
-36.48
-28.09
-19.75
-12.11
-6.10
-2.38
-0.88
-0.73
-0.67
0.39
2.85
6.38
10.15
13.33
15.44
16.47
16.61
15.95
14.20
10.79
5.14
-2.89
-12.84
-23.65
-34.20
-43.73
-52.25
-60.44
-69.28
-79.39
-90.62
-101.93
-111.52
-117.34
-117.60
-111.18
-97.98
-78.86
-55.44
-29.58
-2.97
23.26
48.50
72.55
95.37
116.91
137.09
155.70
172.32
186.02
195.47
199.24
196.72
188.84
178.18
168.30
162.31
161.58
165.26
170.91
175.83
178.31
178.09
175.78
171.67
165.02
154.04
136.92
113.07
83.78
51.90
20.73
-7.18
-30.57
-49.35
-63.84
-74.09
-79.69
-79.98
-74.58
-63.82
-48.71
-30.81
-11.89
6.28
22.19
34.79
43.57
48.61
50.39
49.39
45.79
39.58
30.70
19.48
6.91
-5.61
-16.53
-24.66
-29.49
-31.19
-30.44
-28.23
-25.53
-23.21
-21.87
-21.78
-22.82
-24.58
-26.49
-28.16
-29.49
-30.70
-32.19
-34.29
-37.07
-40.41
-44.17
-48.42
-53.47
-59.73
-67.42
-76.27
-85.56
-94.17
-100.93
-104.93
-105.72
-103.36
-98.36
-91.52
-83.71
-75.63
-67.58
-59.35
-50.46
-40.45
-29.39
-18.02
-7.63
0.44
5.30
6.88
5.90
3.54
0.96
-0.95
-1.65
-0.80
1.80
6.26
12.45
19.86
27.64
34.82
40.68
44.98
47.96
50.21
52.32
54.48
56.54
58.04
58.57
57.98
56.52
54.64
52.72
50.84
48.64
45.40
40.26
32.43
21.38
7.02
-10.19
-29.14
-48.18
-65.27
-78.47
-86.37
-88.41
-84.84
-76.55
-64.67
-50.36
-34.71
-18.84
-3.98
8.71
18.41
25.15
29.83
34.07
39.56
47.42
57.76
69.60
81.26
90.83
96.79
98.23
95.08
87.92
77.78
65.87
53.45
41.63
31.28
22.88
16.44
11.58
7.70
4.29
1.22
-1.17
-2.27
-1.71
0.31
2.85
4.57
4.19
1.05
-4.73
-12.40
-20.98
-29.58
-37.49
-44.03
-48.31
-49.27
-45.82
-37.31
-23.86
-6.47
13.14
33.00
51.40
67.22
80.05
89.91
97.00
101.29
102.49
100.12
93.77
83.33
69.15
52.01
32.87
12.75
-7.50
-27.12
-45.34
-61.34
-74.21
-83.14
-87.70
-87.97
-84.63
-78.73
-71.44
-63.63
-55.77
-47.88
-39.78
-31.37
-22.71
-13.98
-5.35
3.10
11.23
18.56
24.14
26.70
25.17
19.34
10.11
-0.66
-10.82
-18.69
-23.45
-25.08
-24.01
-20.75
-15.73
-9.36
-2.16
5.27
12.37
18.79
24.38
29.01
32.36
33.84
32.82
29.08
23.08
16.02
9.46
4.74
2.47
2.42
3.74
5.43
6.65
6.91
6.04
4.10
1.39
-1.56
-4.09
-5.74
-6.66
-7.94
-11.35
-18.65
-30.68
-46.85
-65.22
-83.28
-98.88
-110.80
-118.94
-123.93
-126.69
-128.19
-129.32
-130.80
-132.92
-135.30
-136.66
-135.19
-129.09
-117.32
-99.98
-78.12
-53.26
-26.81
0.18
26.80
52.09
74.90
94.20
109.55
121.40
130.97
139.78
148.85
158.23
166.76
172.39
172.68
165.43
149.48
124.96
93.60
58.42
23.25
-8.17
-32.96
-49.59
-58.07
-59.66
-56.40
-50.52
-44.02
-38.40
-34.52
-32.63
-32.43
-33.23
-34.13
-34.26
-32.97
-30.07
-25.77
-20.60
-15.16
-9.88
-4.89
-0.06
4.81
9.90
15.28
20.95
26.88
32.93
38.68
43.43
46.34
46.67
44.26
39.56
33.52
27.08
20.84
14.95
9.33
4.00
-0.81
-4.85
-8.19
-11.44
-15.58
-21.44
-29.17
-38.06
-46.88
-54.50
-60.40
-64.90
-68.84
-73.09
-78.11
-83.81
-89.70
-95.25
-100.11
-104.34
-108.26
-112.27
-116.61
-121.10
-125.13
-127.64
-127.31
-122.75
-112.72
-96.48
-74.01
-46.24
-15.03
17.13
47.61
74.18
95.45
111.03
121.42
127.71
131.21
133.17
134.56
135.93
137.30
138.18
137.70
134.89
129.05
119.99
108.03
93.79
77.94
60.96
43.12
24.62
5.75
-13.00
-31.06
-47.82
-62.76
-75.33
-84.84
-90.46
-91.45
-87.54
-79.26
-67.93
-55.31
-42.96
-31.83
-22.04
-13.16
-4.76
3.22
10.38
16.05
19.70
21.21
20.91
19.33
16.96
14.01
10.50
6.44
1.98
-2.50
-6.52
-9.75
-12.10
-13.85
-15.41
-17.17
-19.23
-21.35
-23.01
-23.59
-22.69
-20.21
-16.46
-11.92
-7.10
-2.33
2.26
6.64
10.72
14.37
17.39
19.69
21.44
22.98
24.67
26.68
28.89
30.89
32.19
32.44
31.59
29.83
27.50
24.89
22.16
19.23
15.97
12.24
8.13
3.99
0.39
-2.12
-3.21
-2.95
-1.78
-0.37
0.67
0.97
0.42
-0.88
-2.78
-5.15
-7.89
-10.87
-13.94
-16.97
-19.92
-22.94
-26.29
-30.24
-34.89
-40.02
-44.97
-48.78
-50.31
-48.62
-43.23
-34.32
-22.70
-9.63
3.59
15.92
26.69
35.56
42.40
47.13
49.74
50.33
49.13
46.47
42.65
37.94
32.52
26.61
20.60
14.96
10.17
6.59
4.27
3.00
2.34
1.78
0.84
-0.77
-3.04
-5.60
-7.83
-9.03
-8.76
-7.05
-4.43
-1.67
0.50
1.64
1.58
0.28
-2.44
-6.98
-13.78
-23.08
-34.59
-47.45
-60.33
-71.81
-80.68
-86.23
-88.27
-87.09
-83.17
-77.05
-69.18
-59.90
-49.57
-38.57
-27.46
-16.81
-7.20
0.96
7.49
12.41
15.89
18.13
19.33
19.62
19.11
17.87
16.01
13.63
10.88
7.86
4.69
1.41
-2.02
-5.80
-10.21
-15.62
-22.23
-30.01
-38.57
-47.34
-55.50
-62.04
-65.69
-64.98
-58.69
-46.36
-28.86
-8.44
11.78
28.72
40.42
46.51
48.01
46.66
44.08
41.41
39.34
38.41
39.23
42.35
47.90
55.33
63.48
70.91
76.42
79.42
80.09
79.14
77.52
76.15
75.67
76.32
77.88
79.65
80.50
79.06
74.00
64.43
50.24
32.30
12.28
-7.69
-25.58
-39.94
-50.18
-56.55
-59.91
-61.32
-61.72
-61.86
-62.22
-63.13
-64.78
-67.16
-70.03
-72.81
-74.65
-74.70
-72.38
-67.65
-61.07
-53.61
-46.33
-39.96
-34.88
-31.08
-28.45
-26.82
-26.08
-26.02
-26.22
-26.10
-25.07
-22.69
-18.84
-13.74
-7.83
-1.64
4.25
9.33
13.20
15.55
16.19
15.01
11.96
7.11
0.70
-6.70
-14.08
-20.21
-23.85
-24.11
-20.68
-13.87
-4.35
7.04
19.58
32.66
45.73
58.19
69.38
78.72
85.85
90.84
94.10
96.31
98.15
100.04
102.09
104.13
105.74
106.46
105.84
103.52
99.32
93.20
85.31
75.91
65.17
53.15
39.72
24.76
8.38
-8.84
-25.90
-41.63
-55.10
-65.91
-74.22
-80.48
-85.08
-88.06
-89.16
-88.07
-84.70
-79.32
-72.49
-64.77
-56.65
-48.72
-41.77
-36.83
-34.81
-35.95
-39.33
-43.10
-45.15
-44.16
-40.30
-35.07
-30.44
-27.77
-27.21
-27.82
-28.36
-28.10
-27.24
-26.67
-27.39
-29.98
-34.43
-40.38
-47.48
-55.47
-64.03
-72.34
-78.86
-81.43
-77.87
-66.80
-48.29
-24.14
2.53
28.23
50.19
67.18
79.62
88.98
96.96
104.50
111.61
117.55
121.55
123.42
123.69
123.41
123.55
124.59
126.37
128.29
129.77
130.50
130.65
130.65
130.96
131.80
132.98
133.82
133.10
129.20
120.40
105.36
83.80
56.93
27.42
-1.19
-25.49
-43.31
-54.30
-59.76
-61.95
-63.03
-64.42
-66.55
-69.20
-72.01
-74.79
-77.64
-80.69
-83.93
-87.07
-89.59
-91.06
-91.35
-90.71
-89.63
-88.59
-87.73
-86.76
-85.04
-81.91
-77.06
-70.65
-63.39
-56.16
-49.78
-44.66
-40.74
-37.54
-34.38
-30.63
-25.92
-20.27
-14.05
-7.78
-1.96
3.16
7.61
11.62
15.49
19.40
23.42
27.47
31.47
35.29
38.87
42.16
45.08
47.53
49.38
50.50
50.80
50.24
48.85
46.75
44.11
41.14
38.02
34.78
31.31
27.25
22.20
15.81
8.00
-0.89
-10.14
-18.76
-25.82
-30.69
-33.22
-33.72
-32.71
-30.75
-28.25
-25.41
-22.39
-19.35
-16.50
-14.06
-12.13
-10.65
-9.41
-8.17
-6.81
-5.39
-4.12
-3.22
-2.73
-2.52
-2.32
-1.85
-1.00
0.08
1.08
1.72
1.85
1.59
1.15
0.81
0.64
0.57
0.36
-0.18
-1.14
-2.48
-4.04
-5.65
-7.19
-8.61
-9.87
-11.01
-12.07
-13.21
-14.62
-16.49
-18.91
-21.74
-24.60
-26.95
-28.29
-28.33
-27.02
-24.59
-21.40
-17.78
-13.95
-10.03
-6.11
-2.27
1.31
4.47
7.09
9.13
10.63
11.68
12.36
12.74
12.86
12.70
12.31
11.76
11.13
10.55
10.08
9.71
9.41
9.07
8.64
8.10
7.45
6.64
5.60
4.21
2.42
0.32
-1.85
-3.73
-4.92
-5.14
-4.37
-2.85
-1.01
0.68
1.86
2.39
2.30
1.72
0.70
-0.85
-3.19
-6.60
-11.25
-17.00
-23.42
-29.78
-35.19
-38.70
-39.57
-37.35
-32.14
-24.52
-15.41
-5.83
3.51
12.29
20.67
28.96
37.43
46.02
54.41
62.18
68.95
74.58
79.06
82.41
84.55
85.22
84.08
80.84
75.40
67.95
58.90
48.75
37.99
27.01
16.17
5.81
-3.70
-11.98
-18.80
-24.09
-27.99
-30.78
-32.74
-34.10
-35.01
-35.60
-35.92
-36.03
-35.91
-35.50
-34.71
-33.47
-31.74
-29.60
-27.13
-24.52
-22.04
-20.06
-18.93
-18.86
-19.76
-21.18
-22.48
-23.02
-22.43
-20.62
-17.73
-13.99
-9.58
-4.63
0.70
6.22
11.65
16.72
21.24
25.13
28.41
31.14
33.38
35.22
36.70
37.88
38.73
39.20
39.27
38.98
38.51
38.10
37.94
37.98
37.90
37.11
34.97
31.06
25.28
18.00
9.88
1.70
-5.83
-12.30
-17.60
-21.86
-25.35
-28.34
-30.96
-33.26
-35.20
-36.73
-37.79
-38.36
-38.49
-38.33
-38.08
-38.00
-38.23
-38.85
-39.73
-40.63
-41.24
-41.27
-40.52
-38.87
-36.33
-32.96
-28.96
-24.58
-20.15
-15.95
-12.18
-8.93
-6.20
-3.92
-2.06
-0.58
0.51
1.19
1.44
1.31
0.86
0.27
-0.20
-0.23
0.41
1.83
3.95
6.46
9.00
11.24
12.98
14.20
15.03
15.63
16.14
16.66
17.17
17.57
17.74
17.58
17.01
16.07
14.86
13.47
11.91
10.17
8.20
6.01
3.69
1.40
-0.71
-2.59
-4.38
-6.30
-8.58
-11.25
-14.05
-16.52
-18.11
-18.44
-17.35
-15.02
-11.80
-8.08
-4.18
-0.34
3.25
6.37
8.80
10.39
11.13
11.21
10.90
10.47
10.08
9.71
9.30
8.78
8.19
7.62
7.20
6.98
6.92
6.90
6.82
6.65
6.48
6.43
6.59
6.94
7.34
7.58
7.52
7.13
6.53
5.88
5.25
4.59
3.71
2.41
0.66
-1.41
-3.58
-5.67
-7.61
-9.51
-11.51
-13.69
-16.06
-18.55
-21.07
-23.59
-26.01
-28.11
-29.58
-30.07
-29.31
-27.27
-24.16
-20.35
-16.23
-12.10
-8.13
-4.38
-0.83
2.56
5.78
8.77
11.40
13.49
14.91
15.61
15.65
15.20
14.51
13.79
13.27
12.99
12.98
13.13
13.30
13.33
13.13
12.67
11.98
11.16
10.27
9.35
8.43
7.48
6.46
5.27
3.77
1.84
-0.58
-3.44
-6.57
-9.79
-12.92
-15.93
-18.81
-21.62
-24.39
-27.14
-29.94
-32.90
-36.15
-39.78
-43.73
-47.78
-51.61
-54.94
-57.55
-59.28
-59.98
-59.40
-57.16
-52.93
-46.54
-38.15
-28.25
-17.63
-7.16
2.41
10.60
17.31
22.78
27.43
31.73
36.00
40.37
44.77
49.04
53.03
56.63
59.86
62.80
65.63
68.53
71.68
75.17
79.01
83.05
87.04
90.68
93.68
95.83
97.04
97.38
96.99
96.00
94.30
91.51
86.92
79.70
69.13
54.90
37.32
17.24
-4.02
-24.97
-44.26
-60.89
-74.38
-84.80
-92.65
-98.68
-103.60
-107.79
-111.19
-113.39
-113.68
-111.35
-105.87
-97.02
-85.00
-70.41
-54.17
-37.35
-20.91
-5.57
8.29
20.54
31.19
40.20
47.48
52.83
56.06
57.10
56.08
53.43
49.74
45.76
42.17
39.46
37.80
37.11
37.16
37.62
38.19
38.49
38.16
36.83
34.23
30.25
24.99
18.72
11.69
4.19
-3.50
-11.10
-18.25
-24.60
-29.87
-33.93
-36.79
-38.65
-39.80
-40.60
-41.43
-42.57
-44.11
-45.90
-47.58
-48.66
-48.75
-47.68
-45.53
-42.58
-39.09
-35.32
-31.38
-27.33
-23.20
-19.00
-14.81
-10.72
-6.86
-3.34
-0.31
2.12
3.91
5.06
5.64
5.78
5.68
5.58
5.72
6.23
7.16
8.37
9.61
10.65
11.32
11.63
11.70
11.68
11.69
11.69
11.59
11.25
10.58
9.55
8.19
6.56
4.71
2.69
0.60
-1.47
-3.43
-5.25
-7.01
-8.92
-11.26
-14.24
-17.85
-21.81
-25.50
-28.23
-29.38
-28.71
-26.42
-23.02
-19.17
-15.35
-11.79
-8.42
-5.07
-1.62
1.89
5.27
8.24
10.58
12.15
12.89
12.89
12.29
11.32
10.23
9.27
8.55
8.15
8.02
8.13
8.49
9.10
9.95
10.93
11.86
12.50
12.65
12.22
11.26
9.96
8.54
7.16
5.94
4.86
3.79
2.58
1.08
-0.79
-2.97
-5.35
-7.74
-9.95
-11.91
-13.72
-15.59
-17.74
-20.27
-23.03
-25.65
-27.66
-28.66
-28.51
-27.28
-25.21
-22.53
-19.37
-15.74
-11.69
-7.38
-3.07
0.86
4.14
6.67
8.53
9.90
11.02
11.97
12.78
13.39
13.75
13.89
13.92
14.00
14.31
14.96
15.99
17.34
18.86
20.31
21.42
21.92
21.64
20.58
18.88
16.85
14.77
12.92
11.35
9.92
8.40
6.57
4.31
1.71
-0.96
-3.45
-5.53
-7.19
-8.53
-9.73
-11.01
-12.53
-14.40
-16.67
-19.31
-22.21
-25.04
-27.41
-28.82
-28.89
-27.44
-24.60
-20.76
-16.39
-11.92
-7.62
-3.60
0.13
3.52
6.51
9.00
11.00
12.58
13.89
15.00
15.88
16.44
16.58
16.33
15.89
15.51
15.39
15.60
16.04
16.57
17.05
17.40
17.60
17.64
17.47
17.02
16.27
15.27
14.14
13.02
11.99
11.08
10.24
9.34
8.28
6.93
5.24
3.21
0.93
-1.43
-3.67
-5.63
-7.28
-8.72
-10.21
-12.01
-14.27
-16.96
-19.85
-22.56
-24.66
-25.80
-25.74
-24.46
-22.04
-18.71
-14.75
-10.48
-6.24
-2.30
1.09
3.84
5.95
7.59
8.95
10.20
11.39
12.43
13.10
13.21
12.70
11.66
10.37
9.14
8.22
7.71
7.59
7.71
7.92
8.07
8.04
7.76
7.19
6.28
5.03
3.50
1.79
0.06
-1.49
-2.71
-3.47
-3.79
-3.74
-3.48
-3.15
-2.82
-2.52
-2.22
-1.97
-1.91
-2.25
-3.22
-4.93
-7.28
-9.93
-12.41
-14.19
-14.93
-14.48
-12.97
-10.71
-8.00
-5.07
-2.03
1.08
4.20
7.22
9.98
12.30
14.09
15.35
16.10
16.35
16.09
15.30
14.03
12.49
10.96
9.76
9.04
8.73
8.59
8.33
7.80
7.03
6.25
5.66
5.35
5.23
5.08
4.70
4.04
3.22
2.40
1.67
0.96
0.05
-1.26
-3.03
-5.12
-7.28
-9.25
-10.90
-12.26
-13.47
-14.73
-16.16
-17.85
-19.82
-22.05
-24.43
-26.75
-28.69
-29.89
-30.03
-29.02
-26.91
-23.95
-20.45
-16.65
-12.71
-8.74
-4.79
-0.99
2.53
5.68
8.40
10.69
12.52
13.89
14.74
15.06
14.90
14.38
13.72
13.09
12.65
12.49
12.59
12.92
13.35
13.77
14.01
14.00
13.68
13.09
12.36
11.62
10.94
10.32
9.65
8.82
7.73
6.34
4.66
2.80
0.87
-0.95
-2.51
-3.73
-4.64
-5.40
-6.30
-7.62
-9.55
-12.13
-15.13
-18.21
-20.93
-22.87
-23.76
-23.48
-22.07
-19.67
-16.50
-12.78
-8.72
-4.52
-0.35
3.63
7.31
10.65
13.60
16.12
18.11
19.47
20.14
20.11
19.49
18.45
17.18
15.81
14.43
13.07
11.73
10.38
8.99
7.56
6.09
4.68
3.44
2.50
1.91
1.63
1.52
1.40
1.14
0.66
-0.07
-1.02
-2.14
-3.37
-4.60
-5.74
-6.74
-7.63
-8.52
-9.51
-10.62
-11.80
-12.98
-14.12
-15.29
-16.60
-18.18
-19.97
-21.81
-23.42
-24.50
-24.79
-24.16
-22.58
-20.13
-16.99
-13.37
-9.54
-5.73
-2.13
1.14
4.02
6.52
8.66
10.48
12.02
13.32
14.42
15.31
16.00
16.44
16.53
16.23
15.49
14.41
13.17
12.07
11.39
11.25
11.60
12.17
12.64
12.68
12.09
10.88
9.18
7.27
5.41
3.77
2.39
1.16
-0.08
-1.46
-2.93
-4.32
-5.39
-5.98
-6.10
-5.98
-5.94
-6.30
-7.26
-8.86
-11.07
-13.76
-16.82
-20.07
-23.25
-26.07
-28.19
-29.43
-29.69
-29.07
-27.78
-26.01
-23.89
-21.43
-18.59
-15.32
-11.70
-7.97
-4.42
-1.35
1.02
2.69
3.88
4.95
6.34
8.38
11.20
14.63
18.28
21.64
24.25
25.89
26.61
26.78
26.91
27.54
29.05
31.65
35.37
40.01
45.22
50.49
55.18
58.64
60.44
60.48
59.06
56.75
54.14
51.54
48.87
45.70
41.44
35.64
28.04
18.70
7.93
-3.78
-15.74
-27.16
-37.30
-45.61
-51.85
-56.13
-58.70
-59.77
-59.42
-57.65
-54.58
-50.57
-46.20
-42.06
-38.51
-35.48
-32.60
-29.43
-25.67
-21.43
-17.07
-13.08
-9.88
-7.60
-6.13
-5.16
-4.32
-3.33
-2.04
-0.42
1.52
3.71
6.17
8.93
11.98
15.27
18.65
21.92
24.91
27.41
29.23
30.17
30.04
28.74
26.25
22.66
18.05
12.43
5.65
-2.43
-11.84
-22.29
-33.17
-43.72
-53.25
-61.37
-68.04
-73.39
-77.56
-80.56
-82.25
-82.51
-81.30
-78.70
-74.75
-69.37
-62.35
-53.43
-42.65
-30.44
-17.62
-5.18
6.09
15.79
23.90
30.59
36.08
40.43
43.62
45.64
46.53
46.49
45.76
44.55
43.08
41.52
40.17
39.35
39.45
40.71
43.20
46.67
50.67
54.53
57.57
59.23
59.26
57.69
54.90
51.38
47.61
43.95
40.64
37.75
35.22
32.82
30.16
26.76
22.22
16.37
9.48
2.17
-4.76
-10.60
-14.90
-17.55
-18.70
-18.75
-18.23
-17.75
-17.84
-18.82
-20.64
-23.04
-25.58
-27.89
-29.79
-31.21
-32.17
-32.61
-32.42
-31.49
-29.82
-27.55
-24.90
-22.07
-19.21
-16.37
-13.54
-10.71
-7.83
-4.90
-1.91
1.04
3.84
6.34
8.45
10.16
11.52
12.51
13.06
12.99
12.15
10.48
8.13
5.41
2.67
0.17
-1.99
-3.91
-5.72
-7.57
-9.53
-11.71
-14.23
-17.24
-20.87
-25.04
-29.47
-33.68
-37.14
-39.47
-40.58
-40.68
-40.22
-39.63
-39.19
-38.95
-38.74
-38.29
-37.49
-36.45
-35.51
-35.12
-35.68
-37.27
-39.57
-41.89
-43.33
-43.08
-40.66
-35.98
-29.35
-21.29
-12.38
-3.08
6.25
15.30
23.78
31.26
37.34
41.68
44.21
45.17
45.12
44.77
44.84
45.86
48.04
51.31
55.30
59.55
63.55
67.00
69.69
71.60
72.72
72.94
71.94
69.26
64.40
57.19
47.90
37.37
26.75
17.25
9.82
4.96
2.78
3.10
5.51
9.37
13.88
18.12
21.36
23.21
23.80
23.61
23.10
22.52
21.76
20.59
18.96
17.19
15.70
14.59
13.25
10.43
4.85
-4.00
-15.29
-26.99
-36.67
-42.52
-44.05
-42.16
-38.56
-34.82
-31.78
-29.45
-27.42
-25.36
-23.43
-22.14
-21.98
-23.08
-24.98
-26.92
-28.20
-28.58
-28.47
-28.65
-29.86
-32.38
-35.77
-39.08
-41.15
-41.06
-38.38
-33.33
-26.60
-19.21
-12.16
-6.19
-1.45
2.53
6.69
12.06
19.25
28.24
38.48
49.18
59.76
70.05
80.10
89.81
98.60
105.38
108.93
108.46
103.95
96.18
86.34
75.53
64.39
53.10
41.55
29.71
17.81
6.30
-4.27
-13.49
-21.17
-27.29
-31.97
-35.42
-37.94
-39.96
-41.91
-44.14
-46.69
-49.30
-51.47
-52.69
-52.63
-51.31
-49.09
-46.58
-44.44
-43.24
-43.29
-44.55
-46.65
-49.09
-51.44
-53.52
-55.38
-57.12
-58.72
-59.96
-60.57
-60.39
-59.58
-58.46
-57.33
-56.24
-54.84
-52.67
-49.35
-44.93
-39.85
-34.76
-30.16
-26.14
-22.26
-17.79
-12.01
-4.66
3.91
12.74
20.62
26.52
29.93
30.84
29.57
26.43
21.68
15.68
9.13
3.07
-1.51
-4.23
-5.65
-7.05
-9.71
-14.16
-19.93
-25.91
-31.10
-35.18
-38.49
-41.51
-44.25
-46.09
-46.21
-44.31
-41.01
-37.78
-36.24
-37.45
-41.47
-47.38
-53.67
-58.64
-60.85
-59.39
-54.01
-45.28
-34.37
-22.60
-11.00
0.04
10.66
21.15
31.40
40.84
48.61
54.13
57.56
59.87
62.43
66.41
72.29
79.67
87.57
94.83
100.49
104.11
105.77
105.96
105.36
104.60
103.96
103.33
102.28
100.31
97.18
93.05
88.43
83.87
79.63
75.58
71.28
66.35
60.69
54.61
48.63
43.12
38.17
33.49
28.73
23.67
18.41
13.19
8.32
3.99
0.21
-3.05
-5.85
-8.26
-10.43
-12.64
-15.16
-18.09
-21.29
-24.49
-27.50
-30.46
-33.72
-37.66
-42.33
-47.43
-52.34
-56.53
-59.72
-61.93
-63.37
-64.19
-64.43
-64.03
-62.94
-61.26
-59.03
-56.23
-52.59
-47.64
-41.02
-32.70
-23.13
-13.25
-4.17
3.22
8.54
11.92
13.87
14.87
15.18
14.78
13.60
11.68
9.38
7.21
5.64
4.84
4.58
4.37
3.65
2.12
-0.23
-3.06
-5.88
-8.20
-9.68
-10.18
-9.73
-8.46
-6.59
-4.48
-2.54
-1.23
-0.83
-1.36
-2.54
-3.86
-4.84
-5.15
-4.76
-3.79
-2.41
-0.78
0.97
2.72
4.28
5.51
6.28
6.61
6.58
6.34
6.08
5.94
6.07
6.51
7.22
8.00
8.61
8.82
8.57
8.00
7.32
6.72
6.19
5.57
4.68
3.44
1.95
0.43
-0.95
-2.17
-3.36
-4.71
-6.33
-8.21
-10.24
-12.32
-14.39
-16.39
-18.22
-19.61
-20.21
-19.66
-17.75
-14.54
-10.29
-5.44
-0.36
4.63
9.41
13.89
18.04
21.80
25.15
28.11
30.82
33.38
35.86
38.17
40.16
41.67
42.63
43.06
43.00
42.44
41.35
39.66
37.33
34.37
30.82
26.69
21.95
16.55
10.54
4.05
-2.64
-9.24
-15.51
-21.37
-26.89
-32.22
-37.45
-42.55
-47.33
-51.48
-54.73
-56.93
-58.14
-58.64
-58.76
-58.84
-59.10
-59.57
-60.13
-60.46
-60.17
-58.80
-56.08
-51.92
-46.53
-40.30
-33.70
-27.13
-20.89
-15.15
-10.02
-5.53
-1.67
1.63
4.45
6.85
8.81
10.28
11.22
11.64
11.69
11.55
11.42
11.47
11.77
12.30
13.04
13.84
14.58
15.07
15.23
15.01
14.52
13.99
13.68
13.81
14.45
15.51
16.71
17.65
17.93
17.28
15.64
13.21
10.35
7.51
5.04
3.07
1.48
-0.00
-1.79
-4.15
-7.12
-10.34
-13.07
-14.36
-13.25
-9.13
-1.97
7.55
18.15
28.34
36.81
42.86
46.51
48.36
49.24
49.84
50.40
50.76
50.53
49.28
46.68
42.57
36.88
29.69
21.21
11.88
2.35
-6.60
-14.34
-20.50
-25.04
-28.26
-30.60
-32.49
-34.18
-35.78
-37.17
-38.20
-38.67
-38.45
-37.61
-36.34
-34.98
-33.88
-33.34
-33.44
-34.05
-34.85
-35.50
-35.84
-35.99
-36.30
-37.16
-38.67
-40.50
-41.90
-42.08
-40.52
-37.23
-32.65
-27.34
-21.74
-15.98
-10.05
-4.01
1.88
7.25
11.90
15.92
19.70
23.66
28.00
32.53
36.79
40.29
42.81
44.46
45.65
46.82
48.31
50.22
52.45
54.79
56.97
58.78
60.08
60.87
61.19
61.16
60.86
60.33
59.60
58.71
57.68
56.54
55.25
53.66
51.53
48.62
44.72
39.73
33.65
26.50
18.32
9.14
-0.83
-11.20
-21.38
-30.65
-38.38
-44.09
-47.59
-48.91
-48.33
-46.25
-43.16
-39.57
-35.92
-32.49
-29.37
-26.56
-23.98
-21.55
-19.20
-16.88
-14.53
-12.07
-9.56
-7.14
-5.05
-3.50
-2.51
-1.87
-1.25
-0.30
1.18
3.11
5.24
7.29
9.01
10.33
11.27
11.95
12.41
12.69
12.74
12.52
12.01
11.19
10.01
8.37
6.15
3.26
-0.31
-4.45
-8.89
-13.32
-17.45
-21.09
-24.26
-27.11
-29.87
-32.66
-35.45
-37.98
-39.86
-40.72
-40.32
-38.64
-35.90
-32.42
-28.58
-24.69
-20.97
-17.60
-14.70
-12.39
-10.74
-9.73
-9.21
-8.91
-8.56
-7.98
-7.14
-6.19
-5.37
-4.83
-4.54
-4.28
-3.74
-2.67
-1.04
1.00
3.15
5.09
6.54
7.40
7.62
7.27
6.47
5.36
4.09
2.78
1.47
0.17
-1.13
-2.48
-3.86
-5.25
-6.66
-8.10
-9.69
-11.49
-13.56
-15.85
-18.20
-20.37
-22.07
-23.05
-23.15
-22.25
-20.37
-17.55
-13.91
-9.65
-5.04
-0.43
3.81
7.35
10.00
11.74
12.73
13.25
13.61
14.07
14.77
15.64
16.50
17.07
17.17
16.79
16.11
15.45
15.14
15.33
15.96
16.74
17.32
17.42
16.92
15.91
14.59
13.14
11.71
10.30
8.86
7.33
5.68
3.94
2.12
0.23
-1.75
-3.86
-6.08
-8.37
-10.74
-13.17
-15.69
-18.31
-20.95
-23.41
-25.38
-26.51
-26.54
-25.30
-22.86
-19.43
-15.34
-10.96
-6.64
-2.68
0.74
3.53
5.74
7.46
8.88
10.11
11.19
12.10
12.71
12.97
12.88
12.58
12.25
12.04
12.04
12.25
12.60
12.98
13.32
13.52
13.52
13.27
12.76
12.03
11.18
10.37
9.68
9.12
8.59
7.88
6.73
4.99
2.64
-0.16
-3.10
-5.80
-7.96
-9.42
-10.26
-10.80
-11.51
-12.85
-15.10
-18.26
-21.95
-25.57
-28.39
-29.82
-29.56
-27.62
-24.33
-20.18
-15.66
-11.18
-6.99
-3.24
0.05
2.90
5.40
7.64
9.67
11.49
13.01
14.13
14.84
15.24
15.60
16.25
17.38
19.02
20.99
23.01
24.87
26.40
27.60
28.48
29.05
29.30
29.17
28.62
27.61
26.14
24.21
21.85
19.11
16.06
12.79
9.44
6.13
3.00
0.19
-2.24
-4.25
-5.90
-7.28
-8.51
-9.75
-11.14
-12.84
-14.93
-17.35
-19.91
-22.26
-24.01
-24.84
-24.52
-23.01
-20.44
-17.02
-13.08
-8.92
-4.81
-0.99
2.42
5.32
7.66
9.47
10.80
11.79
12.59
13.34
14.07
14.72
15.17
15.30
15.13
14.75
14.39
14.21
14.32
14.62
14.96
15.10
14.88
14.24
13.21
11.93
10.54
9.16
7.82
6.46
5.01
3.33
1.40
-0.79
-3.13
-5.52
-7.85
-10.04
-12.10
-14.11
-16.17
-18.34
-20.66
-23.06
-25.38
-27.38
-28.80
-29.38
-28.92
-27.37
-24.80
-21.45
-17.60
-13.57
-9.60
-5.85
-2.44
0.54
2.99
4.81
6.00
6.68
7.09
7.45
7.91
8.43
8.89
9.15
9.20
9.16
9.19
9.43
9.86
10.36
10.74
10.90
10.79
10.49
10.08
9.60
9.07
8.44
7.69
6.77
5.66
4.35
2.81
1.09
-0.76
-2.59
-4.31
-5.83
-7.18
-8.49
-9.94
-11.69
-13.83
-16.33
-19.03
-21.66
-23.92
-25.51
-26.18
-25.78
-24.28
-21.78
-18.52
-14.79
-10.89
-7.06
-3.48
-0.22
2.68
5.23
7.46
9.36
10.93
12.11
12.86
13.15
13.04
12.62
12.09
11.61
11.28
11.12
11.06
11.01
10.92
10.75
10.51
10.20
9.84
9.45
9.08
8.78
8.57
8.38
8.05
7.37
6.17
4.39
2.14
-0.33
-2.70
-4.71
-6.24
-7.34
-8.24
-9.23
-10.66
-12.75
-15.56
-18.89
-22.29
-25.21
-27.05
-27.46
-26.34
-23.94
-20.71
-17.10
-13.41
-9.75
-6.08
-2.35
1.37
4.90
8.03
10.56
12.45
13.79
14.74
15.43
15.91
16.14
16.05
15.66
15.07
14.45
13.95
13.66
13.55
13.53
13.48
13.31
13.00
12.58
12.10
11.62
11.15
10.67
10.13
9.41
8.41
7.05
5.34
3.43
1.55
-0.04
-1.17
-1.83
-2.18
-2.53
-3.18
-4.40
-6.33
-8.93
-12.03
-15.31
-18.37
-20.76
-22.11
-22.16
-20.92
-18.59
-15.52
-12.06
-8.48
-4.92
-1.44
1.91
5.05
7.85
10.15
11.84
12.90
13.41
13.53
13.42
13.19
12.92
12.59
12.20
11.79
11.42
11.18
11.08
11.07
11.03
10.87
10.60
10.28
10.04
9.90
9.81
9.61
9.13
8.25
6.95
5.28
3.37
1.36
-0.62
-2.45
-4.06
-5.44
-6.73
-8.16
-10.00
-12.45
-15.52
-18.94
-22.28
-25.01
-26.72
-27.17
-26.37
-24.53
-21.96
-18.98
-15.89
-12.83
-9.86
-6.96
-4.06
-1.17
1.59
4.01
5.87
7.09
7.73
8.01
8.17
8.33
8.48
8.54
8.43
8.17
7.94
7.89
8.12
8.58
9.08
9.40
9.39
9.03
8.44
7.74
7.04
6.33
5.50
4.39
2.91
1.06
-1.03
-3.14
-5.09
-6.74
-8.09
-9.25
-10.39
-11.73
-13.43
-15.59
-18.15
-20.92
-23.54
-25.59
-26.67
-26.53
-25.14
-22.68
-19.43
-15.68
-11.67
-7.63
-3.76
-0.30
2.59
4.84
6.58
8.00
9.31
10.52
11.54
12.19
12.34
12.06
11.56
11.06
10.73
10.58
10.49
10.31
9.95
9.40
8.74
8.08
7.51
7.07
6.75
6.52
6.31
6.02
5.58
4.90
3.97
2.78
1.41
-0.11
-1.69
-3.31
-4.89
-6.37
-7.74
-9.06
-10.48
-12.22
-14.47
-17.25
-20.34
-23.28
-25.50
-26.52
-26.04
-24.08
-20.92
-16.99
-12.79
-8.73
-5.05
-1.80
1.11
3.85
6.56
9.20
11.62
13.58
14.87
15.45
15.44
15.04
14.49
13.97
13.57
13.29
13.13
13.05
13.00
12.92
12.76
12.50
12.18
11.87
11.67
11.63
11.69
11.73
11.59
11.13
10.29
9.07
7.57
5.90
4.18
2.52
1.00
-0.37
-1.61
-2.83
-4.19
-5.80
-7.77
-10.11
-12.78
-15.69
-18.71
-21.63
-24.22
-26.23
-27.38
-27.50
-26.55
-24.60
-21.78
-18.27
-14.22
-9.79
-5.19
-0.68
3.49
7.13
10.17
12.63
14.58
16.07
17.08
17.60
17.62
17.27
16.73
16.24
15.97
15.98
16.24
16.64
17.10
17.53
17.86
18.00
17.87
17.37
16.52
15.40
14.21
13.08
12.07
11.05
9.80
8.05
5.69
2.80
-0.39
-3.54
-6.32
-8.55
-10.16
-11.27
-12.12
-13.04
-14.34
-16.28
-18.94
-22.18
-25.68
-28.95
-31.48
-32.85
-32.82
-31.42
-28.92
-25.71
-22.24
-18.86
-15.78
-13.00
-10.41
-7.84
-5.10
-2.09
1.20
4.70
8.23
11.59
14.61
17.23
19.47
21.42
23.14
24.56
25.54
25.83
25.22
23.60
21.01
17.69
13.98
10.30
7.06
4.60
3.10
2.63
3.16
4.59
6.76
9.43
12.23
14.69
16.37
16.97
16.47
15.05
12.93
10.23
6.83
2.57
-2.64
-8.63
-14.92
-20.98
-26.34
-30.75
-34.23
-36.89
-38.84
-40.10
-40.60
-40.27
-39.08
-37.04
-34.19
-30.62
-26.51
-22.11
-17.72
-13.68
-10.28
-7.63
-5.66
-4.13
-2.72
-1.20
0.51
2.28
3.88
5.11
5.93
6.45
6.87
7.36
7.90
8.39
8.65
8.53
8.03
7.19
6.12
4.88
3.54
2.20
0.95
-0.10
-0.88
-1.41
-1.74
-1.92
-1.87
-1.42
-0.39
1.31
3.55
6.02
8.35
10.29
11.80
13.07
14.43
16.17
18.39
20.91
23.34
25.16
25.90
25.26
23.21
20.00
16.14
12.27
9.04
6.96
6.32
7.15
9.24
12.21
15.62
19.09
22.41
25.46
28.22
30.60
32.43
33.48
33.62
32.83
31.21
28.94
26.15
22.98
19.58
16.13
12.88
10.01
7.61
5.58
3.72
1.75
-0.55
-3.32
-6.63
-10.46
-14.64
-18.91
-22.92
-26.48
-29.59
-32.48
-35.38
-38.29
-40.87
-42.56
-42.87
-41.67
-39.26
-36.15
-32.81
-29.38
-25.74
-21.66
-17.14
-12.43
-7.99
-4.24
-1.33
0.82
2.45
3.79
4.94
5.92
6.70
7.30
7.74
8.08
8.36
8.61
8.88
9.26
9.83
10.64
11.60
12.55
13.26
13.60
13.55
13.23
12.79
12.33
11.83
11.19
10.29
9.08
7.63
6.03
4.38
2.70
1.00
-0.68
-2.25
-3.60
-4.72
-5.74
-6.96
-8.72
-11.20
-14.36
-17.85
-21.16
-23.73
-25.13
-25.14
-23.81
-21.39
-18.22
-14.63
-10.84
-6.95
-3.01
0.86
4.46
7.51
9.80
11.32
12.24
12.86
13.43
14.00
14.47
14.68
14.58
14.25
13.91
13.77
13.90
14.21
14.48
14.55
14.31
13.80
13.18
12.59
12.16
11.87
11.67
11.44
11.14
10.79
10.45
10.15
9.81
9.21
8.12
6.43
4.19
1.56
-1.35
-4.55
-8.16
-12.24
-16.59
-20.71
-23.94
-25.70
-25.70
-24.01
-21.01
-17.21
-13.12
-9.19
-5.75
-3.02
-1.03
0.31
1.17
1.77
2.28
2.90
3.77
4.95
6.32
7.53
8.12
7.74
6.36
4.36
2.30
0.68
-0.38
-1.06
-1.74
-2.67
-3.86
-5.13
-6.24
-7.07
-7.64
-8.03
-8.34
-8.61
-8.82
-9.01
-9.26
-9.66
-10.30
-11.14
-12.11
-13.06
-13.88
-14.50
-14.96
-15.44
-16.15
-17.36
-19.17
-21.51
-24.07
-26.40
-28.01
-28.51
-27.69
-25.51
-22.08
-17.65
-12.61
-7.39
-2.42
2.01
5.76
8.92
11.65
14.13
16.52
18.85
21.08
23.14
24.91
26.24
27.02
27.18
26.79
26.01
25.06
24.10
23.22
22.41
21.59
20.69
19.65
18.45
17.10
15.65
14.11
12.52
10.85
9.08
7.17
5.12
2.98
0.80
-1.34
-3.39
-5.39
-7.38
-9.42
-11.56
-13.78
-16.05
-18.35
-20.69
-23.08
-25.53
-27.94
-30.04
-31.41
-31.67
-30.56
-28.08
-24.50
-20.21
-15.58
-10.86
-6.22
-1.80
2.28
5.83
8.74
10.99
12.69
13.99
15.03
15.81
16.26
16.29
15.92
15.29
14.63
14.19
14.07
14.24
14.48
14.56
14.33
13.80
13.08
12.37
11.73
11.18
10.62
9.99
9.26
8.45
7.52
6.35
4.76
2.62
-0.04
-3.02
-5.99
-8.61
-10.70
-12.25
-13.43
-14.41
-15.34
-16.31
-17.39
-18.63
-20.05
-21.55
-22.92
-23.84
-23.98
-23.12
-21.26
-18.51
-15.11
-11.25
-7.05
-2.59
1.97
6.38
10.30
13.34
15.28
16.04
15.80
14.82
13.41
11.84
10.27
8.79
7.49
6.48
5.86
5.75
6.14
6.92
7.85
8.63
9.04
9.05
8.87
8.79
9.08
9.73
10.41
10.63
9.96
8.35
6.05
3.60
1.49
-0.11
-1.35
-2.66
-4.45
-6.91
-9.92
-13.14
-16.18
-18.74
-20.72
-22.08
-22.78
-22.75
-21.85
-20.02
-17.35
-14.10
-10.60
-7.13
-3.82
-0.65
2.47
5.53
8.44
11.02
13.08
14.56
15.48
15.94
16.03
15.79
15.31
14.71
14.17
13.88
14.01
14.55
15.42
16.46
17.48
18.38
19.04
19.37
19.28
18.73
17.74
16.46
15.11
13.91
12.98
12.24
11.50
10.49
9.04
7.18
5.09
3.08
1.42
0.18
-0.76
-1.66
-2.79
-4.23
-5.81
-7.06
-7.38
-6.19
-3.08
