1549294978.00
64.000000
-0.00
-0.00
-0.00
-0.00
-0.00
-0.00
-0.00
-0.00
-0.00
-0.00
0.00
0.01
0.01
-0.00
-0.03
-0.05
-0.05
0.00
0.13
0.36
0.66
1.01
1.37
1.72
2.06
2.40
2.79
3.24
3.80
4.42
5.06
5.66
6.20
6.68
7.15
7.68
8.31
9.14
10.09
11.04
11.88
12.56
13.14
13.76
14.65
15.96
17.91
20.32
22.90
25.38
27.58
29.57
31.68
34.32
37.81
42.54
48.15
54.10
59.83
64.97
69.58
74.14
79.34
85.71
93.76
103.00
112.62
121.73
129.77
136.75
143.30
150.75
157.77
166.64
177.95
191.79
206.97
220.57
228.25
225.36
208.53
176.87
132.76
80.05
23.07
-34.94
-92.44
-149.16
-205.23
-260.37
-313.74
-363.87
-409.83
-450.91
-486.50
-515.74
-537.23
-549.22
-549.96
-538.37
-514.21
-478.67
-433.88
-382.45
-327.02
-269.84
-212.63
-156.66
-102.95
-52.37
-5.90
35.58
71.43
101.35
125.50
144.38
158.69
169.15
176.37
180.75
182.57
182.07
179.51
175.23
169.65
163.18
156.15
148.81
141.30
133.69
126.02
118.33
110.69
103.16
95.80
88.68
81.83
75.25
68.95
62.95
57.25
51.86
46.78
42.03
37.59
33.45
29.61
26.07
22.81
19.83
17.11
14.67
12.48
10.54
8.83
7.35
6.07
4.97
4.05
3.27
2.62
2.09
1.65
1.30
1.01
0.79
0.61
0.47
0.37
0.29
0.23
0.18
0.16
0.14
0.13
0.14
0.15
0.17
0.20
0.23
0.27
0.30
0.35
0.39
0.44
0.48
0.53
0.58
0.63
0.69
0.75
0.81
0.88
0.95
1.04
1.13
1.23
1.34
1.47
1.62
1.78
1.96
2.16
2.38
2.63
2.90
3.20
3.53
3.89
4.28
4.72
5.18
5.68
6.22
6.81
7.43
8.10
8.81
9.56
10.36
11.21
12.10
13.03
14.02
15.07
16.18
17.35
18.58
19.85
21.12
22.34
23.42
24.26
24.75
24.75
24.17
22.90
20.91
18.21
14.86
10.94
6.65
2.16
-2.33
-6.65
-10.61
-14.06
-16.87
-18.97
-20.33
-20.95
-20.94
-20.43
-19.53
-18.39
-17.09
-15.68
-14.16
-12.56
-10.83
-9.07
-7.34
-5.73
-4.30
-3.02
-1.83
-0.61
0.73
2.32
4.01
5.64
7.06
8.15
8.92
9.55
10.27
11.38
13.05
14.98
16.80
18.14
18.74
18.62
18.05
17.55
17.61
18.64
20.16
21.59
22.31
21.90
20.30
17.87
15.20
12.90
11.46
10.29
8.68
5.72
0.39
-8.45
-21.84
-40.55
-65.02
-90.15
-112.04
-127.13
-133.24
-130.32
-120.36
-106.58
-92.07
-78.72
-66.86
-56.48
-47.18
-38.75
-31.38
-25.32
-20.61
-16.93
-13.90
-11.26
-9.56
-9.29
-10.74
-13.54
-16.67
-18.66
-18.03
-13.89
-6.20
3.88
14.73
24.75
32.85
38.59
42.18
44.18
45.18
45.64
45.69
45.35
44.60
43.47
42.08
40.66
39.49
38.84
38.85
39.43
40.23
40.77
40.55
39.28
36.94
33.77
30.15
26.40
22.73
19.17
15.68
12.25
8.92
5.73
2.66
-0.39
-3.58
-7.07
-10.86
-14.77
-18.53
-21.88
-24.81
-27.61
-30.83
-34.98
-40.22
-46.17
-51.78
-55.66
-56.46
-53.34
-46.21
-35.80
-23.42
-10.59
1.35
11.49
19.37
24.99
28.57
30.49
31.18
31.09
30.65
30.23
30.03
30.11
30.40
30.76
31.06
31.24
31.20
30.84
30.05
28.73
26.88
24.67
22.33
20.02
17.76
15.40
12.76
9.75
6.35
2.71
-1.02
-4.68
-8.18
-11.48
-14.59
-17.61
-20.71
-24.15
-28.15
-32.93
-38.45
-44.43
-50.29
-55.18
-58.11
-58.14
-54.71
-47.81
-38.06
-26.59
-14.68
-3.47
6.29
14.25
20.34
24.59
27.04
27.77
26.96
25.02
22.53
20.14
18.43
17.75
18.21
19.61
21.62
23.76
25.55
26.63
26.73
25.89
24.27
22.20
20.01
17.85
15.70
13.38
10.62
7.22
3.19
-1.25
-5.72
-9.80
-13.18
-15.72
-17.63
-19.41
-21.64
-24.86
-29.18
-34.28
-39.36
-43.43
-45.51
-44.91
-41.39
-35.17
-26.88
-17.42
-7.81
1.03
8.38
13.88
17.50
19.45
20.13
19.92
19.23
18.39
17.63
17.14
17.02
17.28
17.93
18.83
19.79
20.57
20.94
20.77
20.07
18.99
17.73
16.44
15.09
13.55
11.61
9.17
6.25
3.06
-0.16
-3.18
-5.91
-8.46
-11.12
-14.28
-18.34
-23.54
-29.86
-37.03
-44.43
-51.19
-56.24
-58.53
-57.21
-52.03
-43.41
-32.44
-20.55
-9.11
0.91
9.09
15.37
19.92
22.91
24.54
25.04
24.85
24.50
24.49
25.12
26.38
28.06
29.82
31.39
32.56
33.15
33.03
32.13
30.50
28.31
25.79
23.11
20.27
17.22
13.83
10.10
6.18
2.29
-1.44
-5.00
-8.56
-12.30
-16.32
-20.52
-24.72
-28.85
-33.01
-37.55
-42.74
-48.52
-54.27
-58.86
-60.98
-59.53
-54.12
-45.11
-33.61
-21.03
-8.68
2.49
11.98
19.63
25.39
29.36
31.64
32.47
32.21
31.32
30.28
29.52
29.32
29.81
30.89
32.37
33.92
35.20
35.89
35.83
34.95
33.32
31.02
28.11
24.65
20.74
16.56
12.35
8.28
4.41
0.70
-2.91
-6.42
-9.71
-12.61
-15.02
-17.09
-19.20
-21.82
-25.41
-30.16
-35.91
-42.14
-47.95
-52.25
-53.90
-52.07
-46.48
-37.61
-26.55
-14.75
-3.55
6.14
13.93
19.81
24.03
26.81
28.31
28.70
28.23
27.32
26.44
25.99
26.17
26.93
28.01
29.13
30.10
30.95
31.70
32.41
32.88
32.83
31.94
30.06
27.33
24.11
20.86
17.91
15.40
13.16
10.90
8.31
5.19
1.62
-2.16
-5.90
-9.39
-12.65
-15.93
-19.59
-23.99
-29.33
-35.55
-42.27
-48.74
-53.97
-56.84
-56.41
-52.25
-44.59
-34.37
-22.91
-11.60
-1.50
6.77
13.02
17.37
20.10
21.54
22.07
22.09
21.94
21.95
22.33
23.20
24.60
26.47
28.60
30.72
32.56
33.95
34.79
35.10
34.92
34.19
32.78
30.51
27.30
23.20
18.45
13.40
8.42
3.79
-0.30
-3.78
-6.73
-9.26
-11.58
-13.89
-16.36
-19.12
-22.33
-26.14
-30.65
-35.71
-40.81
-45.05
-47.39
-46.95
-43.37
-36.98
-28.66
-19.52
-10.55
-2.36
4.75
10.60
15.03
17.84
18.99
18.67
17.41
15.96
15.07
15.20
16.41
18.36
20.47
22.18
23.08
23.04
22.16
20.61
18.62
16.32
13.78
11.02
8.11
5.15
2.29
-0.35
-2.73
-4.93
-7.06
-9.23
-11.49
-13.78
-16.03
-18.21
-20.42
-22.85
-25.76
-29.35
-33.58
-38.19
-42.60
-46.09
-47.92
-47.44
-44.31
-38.58
-30.73
-21.59
-12.16
-3.32
4.31
10.45
15.06
18.20
19.98
20.60
20.39
19.84
19.45
19.57
20.21
21.13
21.89
22.20
21.94
21.19
20.08
18.70
17.02
15.02
12.78
10.43
8.19
6.18
4.39
2.70
0.96
-0.94
-2.95
-4.93
-6.69
-8.09
-9.16
-10.06
-11.07
-12.49
-14.59
-17.59
-21.55
-26.46
-32.14
-38.14
-43.67
-47.69
-49.12
-47.20
-41.73
-33.23
-22.77
-11.57
-0.65
9.42
18.43
26.34
32.96
37.88
40.64
40.93
38.87
35.03
30.30
25.62
21.75
19.10
17.71
17.32
17.44
17.47
16.87
15.31
12.71
9.32
5.52
1.71
-1.88
-5.20
-8.30
-11.20
-13.78
-15.87
-17.27
-17.94
-18.08
-18.08
-18.36
-19.19
-20.62
-22.48
-24.54
-26.68
-28.94
-31.62
-35.07
-39.52
-44.88
-50.61
-55.77
-59.19
-59.73
-56.76
-50.37
-41.39
-31.25
-21.42
-12.90
-6.03
-0.54
4.07
8.12
11.54
14.08
15.54
16.14
16.46
17.16
18.58
20.56
22.61
24.19
25.09
25.50
25.78
26.22
26.79
27.21
27.08
26.15
24.36
21.88
19.01
16.06
13.33
11.07
9.40
8.24
7.33
6.22
4.48
1.92
-1.41
-5.17
-8.91
-12.25
-15.07
-17.55
-20.10
-23.21
-27.26
-32.33
-38.07
-43.83
-48.68
-51.66
-51.99
-49.22
-43.41
-35.13
-25.38
-15.33
-6.11
1.51
7.18
10.95
13.07
13.94
13.91
13.35
12.66
12.20
12.26
12.92
14.07
15.49
16.92
18.18
19.16
19.79
20.01
19.72
18.82
17.27
15.11
12.48
9.63
6.87
4.52
2.80
1.72
1.06
0.47
-0.43
-1.85
-3.80
-6.10
-8.55
-11.06
-13.73
-16.86
-20.76
-25.61
-31.35
-37.58
-43.62
-48.54
-51.41
-51.48
-48.34
-42.09
-33.25
-22.73
-11.61
-1.03
8.04
14.90
19.22
21.11
21.11
20.00
18.64
17.69
17.50
18.08
19.24
20.69
22.28
23.89
25.45
26.80
27.65
27.70
26.72
24.73
21.97
18.82
15.60
12.49
9.50
6.61
3.84
1.29
-0.87
-2.59
-3.97
-5.21
-6.54
-8.09
-9.96
-12.29
-15.34
-19.51
-25.10
-32.12
-40.14
-48.25
-55.29
-60.10
-61.74
-59.75
-54.10
-45.25
-34.09
-21.77
-9.50
1.64
10.94
18.04
22.97
26.00
27.55
28.10
28.14
28.11
28.34
29.07
30.35
32.09
34.14
36.31
38.41
40.21
41.50
42.05
41.69
40.31
37.91
34.63
30.71
26.46
22.19
18.05
14.12
10.36
6.71
3.09
-0.57
-4.36
-8.44
-12.95
-17.97
-23.52
-29.55
-36.09
-43.21
-50.95
-59.13
-67.07
-73.59
-77.28
-77.00
-72.28
-63.53
-51.92
-38.93
-25.94
-13.93
-3.33
5.70
13.20
19.19
23.69
26.81
28.81
30.09
31.13
32.27
33.70
35.40
37.26
39.17
41.01
42.63
43.80
44.29
43.87
42.48
40.27
37.53
34.58
31.66
28.83
26.02
23.00
19.47
15.20
10.14
4.49
-1.34
-6.86
-11.80
-16.19
-20.45
-25.11
-30.64
-37.11
-44.20
-51.28
-57.53
-62.09
-64.08
-62.77
-57.70
-49.00
-37.41
-24.24
-10.94
1.25
11.59
19.88
26.24
30.95
34.21
36.20
37.17
37.51
37.74
38.36
39.70
41.78
44.29
46.69
48.43
49.12
48.65
47.19
45.01
42.31
39.17
35.50
31.27
26.58
21.66
16.76
11.99
7.30
2.52
-2.47
-7.61
-12.69
-17.44
-21.69
-25.50
-29.14
-33.07
-37.78
-43.61
-50.61
-58.33
-65.84
-71.85
-74.96
-74.09
-68.80
-59.44
-47.05
-32.96
-18.50
-4.71
7.66
18.14
26.37
32.19
35.70
37.29
37.65
37.51
37.50
37.91
38.78
39.95
41.24
42.53
43.75
44.87
45.76
46.23
46.00
44.84
42.59
39.26
35.01
30.20
25.24
20.53
16.28
12.50
8.94
5.25
1.09
-3.77
-9.25
-15.07
-20.81
-26.09
-30.77
-35.10
-39.63
-45.05
-51.93
-60.40
-69.95
-79.37
-87.00
-91.08
-90.34
-84.30
-73.51
-59.27
-43.22
-26.83
-11.12
3.37
16.33
27.47
36.46
43.03
47.15
49.15
49.66
49.41
48.99
48.80
49.04
49.83
51.20
53.14
55.54
58.12
60.48
62.15
62.68
61.77
59.30
55.41
50.48
45.06
39.69
34.76
30.35
26.20
21.87
16.91
11.13
4.70
-1.95
-8.31
-13.99
-18.92
-23.38
-27.91
-33.05
-39.27
-46.69
-55.16
-64.18
-72.88
-80.11
-84.50
-84.80
-80.14
-70.45
-56.52
-39.87
-22.37
-5.66
9.11
21.45
31.28
38.78
44.09
47.37
48.90
49.21
48.96
48.82
49.16
49.98
50.96
51.71
51.96
51.70
51.08
50.30
49.41
48.32
46.86
44.82
42.08
38.61
34.48
29.84
24.95
20.11
15.56
11.43
7.61
3.87
-0.06
-4.29
-8.72
-13.07
-17.05
-20.55
-23.80
-27.32
-31.83
-37.97
-46.04
-55.83
-66.50
-76.63
-84.51
-88.46
-87.33
-80.84
-69.60
-54.94
-38.55
-21.99
-6.52
7.05
18.25
26.90
32.98
36.67
38.35
38.57
37.99
37.26
36.84
36.99
37.70
38.71
39.73
40.48
40.92
41.17
41.44
41.79
42.02
41.71
40.36
37.72
33.92
29.41
24.78
20.47
16.61
13.01
9.32
5.30
0.92
-3.61
-7.91
-11.70
-14.90
-17.70
-20.50
-23.80
-28.09
-33.68
-40.65
-48.67
-56.95
-64.25
-69.12
-70.31
-67.07
-59.46
-48.28
-34.77
-20.31
-6.11
6.79
17.59
25.70
30.81
33.07
33.04
31.58
29.57
27.63
26.12
25.14
24.75
25.02
26.04
27.76
29.95
32.16
33.88
34.65
34.23
32.58
29.90
26.48
22.65
18.70
14.80
10.95
7.01
2.80
-1.80
-6.77
-11.86
-16.81
-21.37
-25.46
-29.22
-32.98
-37.13
-42.08
-48.11
-55.36
-63.57
-72.05
-79.53
-84.41
-85.15
-80.84
-71.53
-58.33
-42.95
-27.18
-12.29
1.04
12.67
22.55
30.56
36.42
39.94
41.27
40.94
39.76
38.47
37.55
37.12
36.98
36.87
36.60
36.10
35.42
34.53
33.32
31.57
29.10
25.85
21.98
17.79
13.57
9.42
5.26
0.88
-3.89
-9.00
-14.17
-18.98
-23.09
-26.32
-28.84
-31.11
-33.74
-37.34
-42.32
-48.86
-56.70
-65.15
-73.04
-78.84
-81.00
-78.35
-70.52
-58.14
-42.73
-26.26
-10.58
3.02
14.05
22.60
29.04
33.71
36.84
38.57
39.10
38.82
38.24
37.81
37.79
38.10
38.44
38.43
37.78
36.50
34.77
32.85
30.94
29.05
27.00
24.56
21.48
17.62
12.92
7.41
1.17
-5.60
-12.60
-19.33
-25.28
-30.13
-33.95
-37.27
-40.93
-45.69
-51.83
-58.89
-65.71
-70.78
-72.66
-70.44
-63.95
-53.77
-41.03
-27.14
-13.44
-1.01
9.54
18.02
24.56
29.41
32.79
34.80
35.54
35.15
33.95
32.37
30.89
29.94
29.74
30.36
31.66
33.39
35.20
36.70
37.47
37.21
35.81
33.46
30.59
27.74
25.30
23.40
21.88
20.49
19.09
17.88
17.23
17.41
18.33
19.47
20.15
20.15
20.04
21.37
26.15
36.11
51.90
72.65
96.15
119.50
140.06
156.25
167.81
175.60
181.06
185.43
189.23
192.18
193.30
191.32
185.02
173.65
157.01
135.64
110.75
83.90
56.51
29.21
1.40
-28.80
-63.96
-106.34
-156.55
-212.76
-270.42
-323.10
-364.08
-388.23
-393.49
-381.50
-356.98
-326.23
-295.49
-269.55
-250.98
-240.04
-234.95
-232.39
-228.27
-218.85
-201.97
-177.85
-148.99
-119.16
-91.74
-68.43
-48.81
-31.04
-12.99
6.58
27.37
47.65
64.73
75.79
78.80
73.27
60.67
44.10
27.20
12.82
2.05
-5.90
-12.71
-19.61
-26.66
-32.98
-37.66
-40.90
-44.32
-50.33
-60.70
-75.52
-92.77
-108.94
-120.30
-124.16
-119.54
-107.09
-88.44
-65.36
-39.17
-10.74
19.07
48.88
76.68
100.24
117.94
129.52
136.27
140.38
144.05
148.54
153.81
158.80
162.22
163.14
161.43
157.52
152.14
146.15
140.42
135.86
133.58
134.74
140.30
150.73
165.73
184.20
204.48
224.77
243.60
259.90
272.75
280.94
282.77
276.28
260.07
234.24
200.66
162.61
123.53
85.57
48.78
11.05
-31.21
-81.99
-144.20
-218.20
-300.48
-383.46
-456.78
-510.11
-536.48
-534.62
-509.10
-468.08
-419.87
-370.07
-320.63
-270.70
-218.45
-162.68
-103.63
-43.08
15.93
69.41
113.00
142.89
156.96
155.66
141.67
119.26
92.96
66.81
44.05
27.22
18.13
17.50
24.43
36.23
49.13
59.43
64.88
65.27
62.14
57.84
54.49
53.30
54.66
58.60
65.12
74.29
85.89
99.05
112.08
122.71
128.69
128.47
121.65
109.08
92.55
74.29
56.36
40.15
26.20
14.29
3.68
-6.46
-16.75
-27.52
-38.70
-49.86
-60.25
-68.78
-74.24
-75.50
-71.96
-63.68
-51.50
-36.83
-21.39
-6.78
5.69
15.20
21.44
24.51
24.91
23.32
20.50
17.20
14.00
11.27
9.10
7.32
5.55
3.32
0.25
-3.79
-8.57
-13.69
-18.65
-23.18
-27.32
-31.46
-36.23
-42.22
-49.75
-58.66
-68.21
-77.19
-84.09
-87.43
-86.11
-79.66
-68.43
-53.52
-36.50
-19.12
-2.89
11.11
22.40
30.97
37.21
41.69
44.98
47.58
49.88
52.12
54.40
56.66
58.69
60.13
60.55
59.62
57.26
53.64
49.19
44.37
39.51
34.72
29.81
24.47
18.35
11.25
3.12
-5.86
-15.26
-24.30
-31.90
-36.84
-38.01
-34.79
-27.32
-16.50
-3.79
9.24
21.28
31.47
39.49
45.31
49.09
51.05
51.47
50.69
49.12
47.23
45.44
44.05
43.12
42.57
42.23
41.93
41.52
40.89
39.82
38.05
35.26
31.28
26.15
20.19
13.85
7.52
1.42
-4.51
-10.51
-16.93
-24.07
-32.14
-41.09
-50.51
-59.58
-67.07
-71.59
-72.00
-67.79
-59.28
-47.56
-34.13
-20.48
-7.75
3.36
12.67
20.23
26.27
31.01
34.64
37.30
39.11
40.21
40.81
41.20
41.67
42.43
43.56
44.94
46.30
47.35
47.85
47.74
47.03
45.79
44.03
41.65
38.50
34.40
29.33
23.43
17.00
10.45
4.11
-1.79
-7.22
-12.32
-17.35
-22.57
-28.23
-34.52
-41.47
-48.96
-56.61
-63.82
-69.69
-73.15
-73.19
-69.08
-60.59
-48.09
-32.45
-14.88
3.31
20.91
36.87
50.38
61.00
68.71
73.99
77.80
81.39
85.88
91.96
99.65
108.31
116.94
124.65
131.06
136.57
142.27
149.49
159.09
170.64
181.99
189.64
189.60
178.82
156.30
123.28
82.73
38.09
-7.97
-54.20
-100.73
-148.74
-199.88
-255.57
-316.13
-379.91
-442.88
-499.04
-541.82
-565.93
-569.05
-552.30
-519.43
-475.32
-424.47
-370.29
-315.09
-260.52
-207.72
-157.09
-107.98
-58.87
-8.19
44.40
97.21
146.62
188.31
218.81
236.91
243.93
242.92
237.26
229.49
220.91
211.96
202.93
194.41
187.18
181.73
177.78
174.28
169.89
163.63
155.25
145.28
134.72
124.52
115.25
107.01
99.57
92.69
86.30
80.46
75.28
70.76
66.68
62.78
58.85
54.87
50.91
47.03
43.12
38.84
33.75
27.49
20.00
11.41
2.02
-7.90
-18.11
-28.24
-37.75
-45.72
-51.16
-53.23
-51.58
-46.60
-39.20
-30.57
-21.79
-13.60
-6.33
-0.15
4.84
8.47
10.63
11.33
10.84
9.68
8.43
7.60
7.44
7.93
8.82
9.76
10.48
10.82
10.86
10.84
10.99
11.42
12.01
12.43
12.33
11.51
10.09
8.40
6.88
5.77
4.95
4.07
2.68
0.48
-2.49
-5.87
-9.17
-11.98
-14.27
-16.43
-19.21
-23.41
-29.55
-37.59
-46.83
-56.12
-64.08
-69.53
-71.69
-70.34
-65.79
-58.78
-50.34
-41.55
-33.40
-26.54
-21.21
-17.10
-13.38
-8.88
-2.49
6.35
17.21
28.60
38.48
45.07
47.63
46.78
44.17
41.56
39.97
39.39
39.05
38.25
36.98
36.01
36.42
38.83
42.74
46.66
48.56
46.75
40.60
30.79
18.98
7.04
-3.61
-12.41
-19.48
-25.22
-29.77
-32.87
-33.91
-32.13
-26.90
-17.80
-4.67
12.37
32.86
55.89
79.95
102.92
122.23
135.36
140.45
137.14
127.06
113.61
100.95
92.33
88.67
88.06
86.71
80.77
68.15
48.97
24.75
-3.15
-34.46
-69.49
-107.52
-145.48
-178.05
-199.70
-207.49
-202.86
-191.14
-178.94
-170.97
-168.08
-167.67
-165.84
-159.79
-149.01
-134.65
-118.03
-99.51
-78.52
-54.85
-30.05
-7.81
6.89
9.88
-0.37
-21.76
-49.02
-75.36
-94.65
-103.17
-100.37
-88.58
-71.85
-54.38
-39.38
-28.44
-21.57
-17.86
-16.08
-15.22
-14.68
-14.15
-13.36
-11.96
-9.62
-6.13
-1.65
3.26
7.82
11.12
12.50
11.71
9.01
5.04
0.55
-3.96
-8.41
-13.11
-18.52
-24.90
-32.18
-40.05
-48.00
-55.52
-62.15
-67.42
-70.89
-72.20
-71.22
-68.13
-63.52
-58.01
-52.06
-45.72
-38.62
-30.19
-19.87
-7.34
7.36
23.70
40.58
56.33
68.96
76.69
78.49
74.57
66.31
55.84
45.23
35.93
28.49
22.86
18.76
15.98
14.36
13.60
13.07
11.99
9.75
6.21
1.82
-2.64
-6.58
-9.89
-12.95
-16.31
-20.26
-24.47
-28.16
-30.36
-30.33
-27.86
-23.24
-17.12
-10.31
-3.62
2.19
6.52
9.03
9.73
8.95
7.21
5.09
3.01
1.25
-0.03
-0.73
-0.79
-0.20
0.84
1.93
2.59
2.43
1.30
-0.63
-2.98
-5.44
-7.87
-10.46
-13.58
-17.63
-22.87
-29.31
-36.57
-44.06
-50.87
-55.94
-58.21
-56.90
-51.71
-43.02
-31.82
-19.40
-7.06
4.21
13.85
21.61
27.43
31.31
33.37
33.81
33.02
31.51
29.80
28.29
27.17
26.48
26.10
25.91
25.71
25.28
24.41
22.92
20.72
17.81
14.34
10.44
6.23
1.76
-3.03
-8.26
-14.08
-20.59
-27.68
-34.95
-41.58
-46.44
-48.36
-46.44
-40.38
-30.58
-18.11
-4.36
9.25
21.51
31.64
39.23
44.23
46.87
47.50
46.58
44.59
41.95
39.10
36.44
34.32
32.95
32.41
32.55
33.04
33.48
33.47
32.72
31.08
28.52
25.10
20.88
15.98
10.50
4.66
-1.38
-7.48
-13.70
-20.26
-27.43
-35.30
-43.46
-50.89
-56.16
-57.81
-54.88
-47.30
-35.88
-22.07
-7.51
6.43
18.81
29.14
37.17
42.82
46.10
47.16
46.39
44.37
41.81
39.38
37.53
36.44
36.04
36.14
36.44
36.79
36.98
36.82
36.04
34.37
31.61
27.76
23.02
17.80
12.54
7.55
2.86
-1.82
-6.95
-13.03
-20.22
-28.24
-36.26
-43.09
-47.37
-47.95
-44.21
-36.19
-24.65
-10.92
3.40
16.76
27.94
36.22
41.38
43.64
43.53
41.68
38.82
35.65
32.83
30.88
30.02
30.13
30.81
31.53
31.87
31.63
30.83
29.63
28.07
26.05
23.29
19.55
14.79
9.22
3.33
-2.42
-7.74
-12.70
-17.62
-22.95
-29.04
-36.05
-43.82
-51.88
-59.46
-65.53
-68.91
-68.60
-64.05
-55.32
-43.24
-29.06
-14.23
-0.01
12.70
23.33
31.63
37.50
41.00
42.36
42.03
40.62
38.78
37.08
35.93
35.41
35.44
35.72
35.92
35.76
35.10
34.00
32.52
30.70
28.45
25.56
21.82
17.18
11.83
6.15
0.60
-4.59
-9.41
-14.18
-19.31
-25.19
-31.92
-39.23
-46.42
-52.47
-56.19
-56.51
-52.76
-44.98
-33.94
-20.99
-7.66
4.70
15.26
23.71
30.04
34.34
36.72
37.34
36.57
34.98
33.30
32.15
31.84
32.28
33.09
33.82
34.15
33.96
33.31
32.33
31.08
29.50
27.44
24.71
21.18
16.89
12.03
6.91
1.92
-2.69
-6.82
-10.60
-14.31
-18.36
-23.13
-28.85
-35.46
-42.52
-49.16
-54.27
-56.68
-55.56
-50.62
-42.25
-31.41
-19.34
-7.26
3.88
13.45
21.17
26.90
30.62
32.40
32.46
31.19
29.18
27.06
25.38
24.48
24.40
24.94
25.79
26.61
27.15
27.31
27.06
26.42
25.40
24.00
22.18
19.91
17.14
13.83
9.99
5.69
1.13
-3.47
-7.87
-11.96
-15.79
-19.59
-23.71
-28.39
-33.77
-39.69
-45.70
-51.06
-54.92
-56.43
-54.97
-50.29
-42.61
-32.59
-21.22
-9.63
1.12
10.14
16.89
21.20
23.25
23.46
22.40
20.68
18.88
17.48
16.82
17.02
17.97
19.39
20.88
22.04
22.56
22.34
21.41
19.94
18.10
16.01
13.68
11.07
8.13
4.92
1.56
-1.71
-4.73
-7.42
-9.93
-12.55
-15.65
-19.54
-24.38
-30.02
-35.97
-41.34
-45.01
-45.86
-43.15
-36.80
-27.52
-16.55
-5.35
4.85
13.22
19.47
23.63
25.87
26.39
25.51
23.63
21.34
19.25
17.90
17.52
18.04
19.14
20.37
21.35
21.82
21.62
20.75
19.22
17.16
14.69
11.85
8.58
4.76
0.25
-4.88
-10.34
-15.68
-20.42
-24.37
-27.70
-30.86
-34.42
-38.82
-44.12
-50.04
-55.95
-61.05
-64.49
-65.41
-63.22
-57.62
-48.89
-37.78
-25.48
-13.26
-2.17
7.11
14.38
19.71
23.30
25.34
26.04
25.64
24.54
23.27
22.35
22.18
22.85
24.14
25.63
26.79
27.26
26.89
25.84
24.36
22.69
20.85
18.60
15.62
11.63
6.66
1.09
-4.42
-9.26
-13.08
-15.99
-18.49
-21.20
-24.63
-29.00
-34.25
-40.08
-46.07
-51.67
-56.13
-58.55
-58.09
-54.23
-46.99
-37.07
-25.62
-13.90
-2.95
6.58
14.38
20.35
24.45
26.72
27.40
26.92
25.88
24.86
24.26
24.20
24.59
25.30
26.21
27.25
28.34
29.28
29.80
29.68
28.82
27.31
25.35
23.09
20.58
17.72
14.43
10.69
6.63
2.49
-1.54
-5.33
-8.90
-12.34
-15.78
-19.44
-23.54
-28.33
-33.96
-40.42
-47.36
-54.08
-59.55
-62.64
-62.36
-58.20
-50.30
-39.46
-26.94
-14.17
-2.36
7.67
15.61
21.43
25.30
27.41
28.03
27.47
26.22
24.89
24.05
24.09
25.10
26.87
28.98
31.03
32.73
33.90
34.46
34.29
33.27
31.34
28.53
25.08
21.27
17.41
13.60
9.83
5.99
1.99
-2.14
-6.26
-10.19
-13.82
-17.17
-20.41
-23.84
-27.75
-32.38
-37.80
-43.80
-49.82
-54.92
-58.02
-58.10
-54.55
-47.45
-37.46
-25.74
-13.60
-2.19
7.68
15.55
21.21
24.68
26.07
25.69
24.08
21.91
19.92
18.70
18.55
19.40
20.83
22.35
23.47
23.98
23.90
23.42
22.76
21.98
20.98
19.50
17.30
14.27
10.47
6.19
1.75
-2.54
-6.49
-10.06
-13.32
-16.39
-19.45
-22.70
-26.40
-30.72
-35.66
-40.84
-45.55
-48.71
-49.31
-46.63
-40.57
-31.71
-21.08
-9.90
0.72
9.96
17.33
22.53
25.49
26.28
25.25
22.91
19.98
17.17
15.05
13.99
14.04
15.05
16.70
18.61
20.37
21.68
22.37
22.40
21.79
20.54
18.53
15.61
11.65
6.75
1.22
-4.44
-9.74
-14.44
-18.57
-22.47
-26.64
-31.57
-37.56
-44.58
-52.21
-59.60
-65.60
-68.98
-68.75
-64.40
-56.14
-44.82
-31.70
-18.13
-5.26
6.10
15.46
22.61
27.47
30.11
30.79
29.98
28.32
26.49
25.05
24.33
24.39
25.06
26.04
27.04
27.82
28.22
28.15
27.58
26.44
24.67
22.15
18.78
14.52
9.48
3.89
-1.84
-7.37
-12.46
-17.08
-21.39
-25.71
-30.33
-35.57
-41.69
-48.75
-56.57
-64.48
-71.35
-75.71
-76.18
-71.92
-63.01
-50.45
-35.81
-20.81
-6.80
5.45
15.65
23.78
29.89
34.03
36.29
36.97
36.52
35.58
34.72
34.37
34.65
35.43
36.40
37.19
37.58
37.51
37.04
36.26
35.21
33.82
31.90
29.25
25.68
21.18
15.86
10.02
4.06
-1.61
-6.72
-11.24
-15.41
-19.72
-24.74
-30.96
-38.53
-47.22
-56.31
-64.69
-71.04
-74.09
-72.94
-67.31
-57.59
-44.82
-30.39
-15.68
-1.88
10.17
20.00
27.37
32.26
34.84
35.45
34.69
33.26
31.99
31.58
32.53
34.96
38.61
42.90
47.13
50.56
52.70
53.30
52.41
50.28
47.25
43.63
39.64
35.37
30.81
25.91
20.53
14.66
8.36
1.87
-4.50
-10.45
-15.90
-21.00
-26.12
-31.73
-38.22
-45.71
-53.91
-62.05
-68.96
-73.23
-73.54
-69.06
-59.77
-46.55
-30.98
-14.87
0.13
12.96
23.12
30.53
35.34
37.79
38.25
37.23
35.46
33.77
32.92
33.38
35.24
38.12
41.36
44.23
46.17
46.87
46.28
44.61
42.05
38.81
34.96
30.56
25.60
20.15
14.32
8.28
2.25
-3.56
-8.99
-13.98
-18.58
-22.98
-27.51
-32.56
-38.52
-45.63
-53.76
-62.21
-69.72
-74.63
-75.32
-70.78
-60.98
-46.98
-30.55
-13.70
1.92
15.28
26.00
34.12
39.84
43.34
44.81
44.54
43.08
41.16
39.59
38.99
39.60
41.21
43.32
45.27
46.51
46.70
45.75
43.72
40.74
36.97
32.52
27.53
22.07
16.20
9.93
3.30
-3.56
-10.44
-17.02
-23.02
-28.24
-32.64
-36.37
-39.80
-43.46
-47.95
-53.78
-61.13
-69.66
-78.32
-85.51
-89.41
-88.46
-81.91
-70.03
-54.10
-35.99
-17.69
-0.77
13.83
25.80
35.24
42.40
47.44
50.49
51.75
51.59
50.67
49.71
49.35
49.88
51.17
52.81
54.26
55.11
55.16
54.38
52.86
50.68
47.91
44.61
40.79
36.51
31.75
26.51
20.77
14.55
7.93
1.06
-5.84
-12.57
-19.01
-25.15
-31.15
-37.30
-44.00
-51.62
-60.24
-69.48
-78.35
-85.35
-88.83
-87.45
-80.61
-68.79
-53.34
-36.14
-19.00
-3.27
10.27
21.36
29.98
36.20
40.16
42.15
42.63
42.25
41.69
41.42
41.71
42.60
43.94
45.54
47.15
48.55
49.47
49.70
49.07
47.54
45.11
41.82
37.77
33.07
27.93
22.51
16.97
11.37
5.71
-0.02
-5.74
-11.28
-16.49
-21.29
-25.89
-30.70
-36.29
-43.08
-51.14
-59.95
-68.37
-74.84
-77.77
-76.02
-69.27
-58.12
-43.96
-28.49
-13.32
0.39
11.94
21.04
27.56
31.49
32.89
32.03
29.50
26.13
22.87
20.51
19.48
19.82
21.31
23.70
26.78
30.32
33.97
37.07
38.79
38.33
35.26
29.75
22.42
14.12
5.52
-3.10
-11.83
-20.97
-30.71
-41.00
-51.58
-62.03
-71.96
-81.05
-89.27
-96.96
-104.85
-113.81
-124.56
-137.12
-150.30
-161.62
-167.63
-164.66
-149.73
-121.40
-80.33
-29.38
26.77
82.54
132.58
173.01
202.15
220.73
231.14
236.34
238.69
239.27
237.77
232.96
223.38
208.02
186.63
159.91
129.37
97.20
65.87
37.71
14.54
-2.70
-13.99
-20.14
-22.56
-22.82
-22.45
-22.60
-23.99
-26.81
-30.85
-35.62
-40.52
-45.00
-48.68
-51.48
-53.57
-55.33
-57.24
-59.72
-63.00
-67.17
-72.09
-77.40
-82.54
-86.61
-88.58
-87.42
-82.36
-73.19
-60.20
-44.06
-25.51
-5.26
16.03
37.44
57.67
75.06
87.92
95.12
96.40
92.59
85.37
76.71
68.68
62.70
59.47
59.06
61.06
64.85
69.78
75.17
80.34
84.78
87.95
89.29
88.41
85.13
79.53
71.96
62.99
53.15
43.52
34.83
27.64
22.20
18.27
15.11
11.73
7.26
0.88
-5.99
-11.94
-15.32
-14.81
-9.79
-0.70
11.06
23.29
32.05
36.22
33.83
24.40
9.03
-9.71
-29.04
-47.11
-63.83
-82.87
-104.69
-132.56
-169.05
-215.00
-268.21
-323.36
-372.36
-406.58
-422.09
-413.63
-384.41
-341.04
-290.47
-236.23
-178.31
-114.73
-28.73
52.52
124.03
175.58
199.90
195.73
169.90
133.08
95.97
65.69
41.35
23.62
8.18
-8.71
-29.94
-55.90
-87.99
-127.61
-174.82
-228.70
-280.31
-320.94
-342.55
-341.81
-318.82
-279.76
-232.53
-183.26
-135.34
-85.63
-31.58
31.98
91.27
139.25
166.52
166.98
140.79
94.13
38.91
-13.02
-52.65
-76.33
-82.49
-73.50
-52.53
-22.49
13.93
54.80
98.06
141.87
183.93
223.49
258.24
285.49
302.71
308.44
303.07
288.90
269.29
247.00
224.64
202.74
181.00
159.19
137.73
117.62
99.87
85.00
72.61
62.49
54.28
48.01
43.96
42.37
42.96
44.83
46.64
46.91
44.69
39.55
31.90
22.80
13.67
5.87
0.20
-3.22
-4.98
-5.97
-6.95
-8.23
-9.66
-10.77
-11.25
-11.15
-10.93
-11.26
-12.69
-15.39
-19.11
-23.33
-27.53
-31.44
-35.18
-39.12
-43.64
-48.88
-54.59
-60.07
-64.32
-66.31
-65.28
-60.92
-53.42
-43.44
-31.86
-19.66
-7.71
3.20
12.44
19.55
24.28
26.74
27.26
26.45
24.90
23.18
21.65
20.51
19.83
19.51
19.29
18.70
17.17
14.14
9.35
2.92
-4.64
-12.63
-20.44
-27.64
-34.06
-39.69
-44.60
-48.88
-52.73
-56.48
-60.55
-65.21
-70.35
-75.33
-78.98
-79.96
-77.19
-70.24
-59.49
-46.04
-31.39
-17.03
-4.17
6.45
14.59
20.36
24.05
26.01
26.57
26.06
24.82
23.30
22.00
21.30
21.40
22.21
23.36
24.45
25.10
25.13
24.50
23.21
21.16
18.17
14.09
9.02
3.29
-2.57
-8.12
-13.17
-17.93
-22.90
-28.60
-35.36
-43.14
-51.44
-59.39
-65.80
-69.45
-69.28
-64.78
-56.07
-44.00
-29.91
-15.27
-1.35
10.96
21.19
29.16
34.93
38.69
40.77
41.63
41.81
41.76
41.81
42.01
42.27
42.45
42.40
42.08
41.48
40.54
39.18
37.25
34.69
31.51
27.86
23.97
20.06
16.31
12.74
9.27
5.79
2.20
-1.50
-5.23
-8.92
-12.58
-16.34
-20.49
-25.39
-31.38
-38.65
-47.17
-56.54
-65.94
-74.10
-79.57
-80.94
-77.41
-68.96
-56.47
-41.43
-25.57
-10.37
3.14
14.38
23.13
29.38
33.30
35.23
35.73
35.45
35.06
34.99
35.45
36.36
37.52
38.73
39.84
40.82
41.66
42.32
42.69
42.63
41.98
40.68
38.72
36.12
32.98
29.45
25.71
22.00
18.53
15.42
12.61
9.90
7.01
3.77
0.12
-3.78
-7.72
-11.52
-15.11
-18.58
-22.17
-26.21
-31.08
-37.11
-44.36
-52.51
-60.64
-67.37
-71.10
-70.56
-65.16
-55.27
-42.05
-27.16
-12.30
1.15
12.24
20.53
26.00
29.00
30.06
29.88
29.13
28.39
28.05
28.31
29.23
30.71
32.56
34.53
36.40
37.98
39.17
39.93
40.24
40.02
39.15
37.54
35.11
31.91
28.16
24.15
20.20
16.51
13.11
9.82
6.41
2.71
-1.33
-5.53
-9.61
-13.25
-16.27
-18.71
-20.85
-23.20
-26.34
-30.81
-36.76
-43.88
-51.27
-57.58
-61.37
-61.46
-57.27
-49.01
-37.59
-24.41
-11.05
1.15
11.16
18.47
23.02
25.12
25.30
24.16
22.39
20.58
19.27
18.83
19.44
21.03
23.26
25.65
27.70
29.11
29.83
29.99
29.80
29.33
28.47
26.96
24.67
21.66
18.28
14.97
12.04
9.53
7.17
4.54
1.29
-2.67
-7.12
-11.72
-16.14
-20.24
-24.12
-28.06
-32.37
-37.33
-43.07
-49.57
-56.54
-63.41
-69.25
-72.92
-73.33
-69.72
-62.00
-50.83
-37.47
-23.49
-10.27
1.19
10.44
17.42
22.29
25.29
26.69
26.88
26.30
25.53
25.11
25.36
26.36
27.87
29.53
30.99
32.02
32.60
32.78
32.62
32.03
30.85
28.90
26.04
22.36
18.12
13.72
9.61
6.07
3.16
0.64
-1.80
-4.48
-7.54
-10.90
-14.32
-17.52
-20.31
-22.65
-24.75
-26.98
-29.89
-33.99
-39.54
-46.41
-53.94
-60.97
-66.13
-68.10
-66.07
-59.91
-50.17
-37.97
-24.69
-11.70
-0.08
9.49
16.77
21.86
25.03
26.61
26.87
26.09
24.68
23.17
22.12
21.95
22.73
24.21
25.91
27.37
28.31
28.73
28.79
28.69
28.50
28.12
27.34
25.93
23.78
20.88
17.46
13.82
10.27
7.00
4.03
1.17
-1.83
-5.17
-8.87
-12.82
-16.81
-20.66
-24.33
-27.94
-31.72
-35.96
-40.93
-46.78
-53.42
-60.40
-66.86
-71.70
-73.73
-72.08
-66.37
-56.96
-44.80
-31.20
-17.54
-4.98
5.72
14.21
20.44
24.62
27.11
28.35
28.84
29.06
29.41
30.10
31.15
32.39
33.56
34.43
34.89
34.99
34.88
34.66
34.36
33.92
33.17
31.94
30.04
27.36
23.89
19.79
15.40
11.11
7.26
3.95
1.04
-1.79
-4.90
-8.47
-12.42
-16.44
-20.13
-23.16
-25.50
-27.43
-29.53
-32.50
-36.88
-42.81
-49.87
-57.02
-62.87
-65.99
-65.35
-60.61
-52.17
-41.02
-28.51
-15.97
-4.46
5.29
12.87
18.09
20.98
21.74
20.86
19.04
17.10
15.80
15.62
16.66
18.65
21.12
23.62
25.85
27.63
28.87
29.48
29.36
28.43
26.69
24.20
21.12
17.63
13.99
10.47
7.31
4.60
2.24
-0.08
-2.76
-6.11
-10.14
-14.59
-19.02
-23.04
-26.56
-29.79
-33.21
-37.31
-42.48
-48.76
-55.75
-62.65
-68.26
-71.30
-70.64
-65.78
-56.99
-45.29
-32.12
-18.95
-6.87
3.47
11.82
18.22
22.73
25.53
26.89
27.23
27.08
26.98
27.27
28.05
29.23
30.60
31.96
33.24
34.41
35.43
36.14
36.31
35.65
33.98
31.29
27.74
23.63
19.30
15.05
11.04
7.30
3.70
0.08
-3.72
-7.73
-11.87
-15.98
-19.93
-23.68
-27.29
-30.98
-35.02
-39.75
-45.43
-52.13
-59.50
-66.69
-72.40
-75.18
-73.87
-68.05
-58.17
-45.42
-31.31
-17.30
-4.42
6.65
15.58
22.20
26.47
28.58
28.96
28.27
27.28
26.65
26.78
27.81
29.57
31.79
34.14
36.35
38.26
39.79
40.87
41.40
41.24
40.26
38.37
35.62
32.17
28.31
24.31
20.42
16.70
13.12
9.46
5.48
0.97
-4.06
-9.42
-14.76
-19.72
-24.21
-28.43
-32.90
-38.28
-45.07
-53.32
-62.48
-71.43
-78.62
-82.54
-82.09
-76.82
-67.10
-53.98
-38.81
-23.05
-7.92
5.68
17.10
25.95
32.04
35.43
36.50
35.91
34.55
33.25
32.65
33.04
34.35
36.26
38.41
40.49
42.32
43.83
45.00
45.72
45.81
45.08
43.39
40.70
37.14
32.97
28.52
24.08
19.78
15.57
11.25
6.66
1.69
-3.53
-8.75
-13.74
-18.37
-22.74
-27.19
-32.13
-37.95
-44.81
-52.51
-60.44
-67.56
-72.61
-74.27
-71.59
-64.24
-52.69
-38.18
-22.36
-6.91
6.80
18.00
26.41
32.12
35.47
36.83
36.71
35.70
34.49
33.74
33.98
35.40
37.87
40.93
43.96
46.41
47.85
48.12
47.25
45.42
42.87
39.79
36.29
32.45
28.29
23.87
19.28
14.61
10.00
5.53
1.23
-2.96
-7.12
-11.38
-15.79
-20.45
-25.45
-31.06
-37.57
-45.13
-53.48
-61.73
-68.40
-71.83
-70.66
-64.36
-53.41
-39.10
-23.14
-7.17
7.54
20.12
29.99
36.85
40.61
41.46
40.04
37.29
34.31
32.07
31.15
31.70
33.49
36.10
39.04
41.87
44.18
45.59
45.73
44.38
41.56
37.53
32.69
27.53
22.34
17.22
12.13
6.91
1.47
-4.19
-9.92
-15.49
-20.65
-25.23
-29.22
-32.86
-36.63
-41.21
-47.28
-55.18
-64.65
-74.56
-83.15
-88.36
-88.48
-82.73
-71.50
-56.23
-38.97
-21.76
-6.18
6.87
17.12
24.75
30.16
33.87
36.36
38.10
39.55
41.00
42.64
44.50
46.46
48.34
49.95
51.13
51.86
52.17
52.11
51.61
50.47
48.40
45.22
40.96
35.92
30.57
25.35
20.45
15.84
11.34
6.72
1.93
-2.99
-7.92
-12.82
-17.69
-22.71
-28.06
-34.00
-40.84
-48.82
-57.98
-67.86
-77.41
-84.96
-88.70
-87.20
-79.96
-67.59
-51.69
-34.24
-17.10
-1.61
11.61
22.36
30.70
36.75
40.69
42.81
43.63
43.86
44.31
45.58
47.85
50.87
54.01
56.61
58.23
58.80
58.58
57.91
56.95
55.63
53.65
50.66
46.55
41.54
36.06
30.63
25.54
20.88
16.39
11.75
6.74
1.31
-4.31
-9.76
-14.75
-19.13
-23.00
-26.74
-30.85
-35.94
-42.47
-50.69
-60.37
-70.69
-80.27
-87.38
-90.38
-88.12
-80.36
-67.82
-52.04
-34.95
-18.33
-3.48
8.95
18.85
26.36
31.76
35.29
37.23
37.98
38.10
38.25
39.01
40.70
43.24
46.23
49.11
51.40
52.84
53.43
53.35
52.83
51.94
50.55
48.37
45.17
40.86
35.71
30.26
25.11
20.69
17.08
13.95
10.78
7.14
2.86
-1.89
-6.74
-11.35
-15.59
-19.52
-23.42
-27.60
-32.41
-38.16
-44.99
-52.81
-61.04
-68.59
-74.02
-75.91
-73.32
-66.12
-55.05
-41.43
-26.83
-12.59
0.33
11.28
19.87
25.91
29.39
30.61
30.22
29.09
28.17
28.15
29.35
31.63
34.52
37.39
39.70
41.13
41.58
41.17
40.03
38.26
35.92
33.01
29.53
25.56
21.21
16.70
12.23
7.99
4.07
0.48
-2.95
-6.42
-10.10
-14.05
-18.17
-22.24
-26.06
-29.52
-32.76
-36.10
-40.02
-44.98
-51.25
-58.74
-66.82
-74.31
-79.70
-81.48
-78.57
-70.75
-58.72
-43.92
-28.12
-12.92
0.53
11.65
20.31
26.60
30.70
32.86
33.43
32.87
31.72
30.57
29.85
29.78
30.39
31.49
32.86
34.25
35.46
36.34
36.80
36.74
36.09
34.76
32.67
29.83
26.37
22.50
18.54
14.79
11.40
8.37
5.51
2.56
-0.71
-4.43
-8.59
-13.05
-17.62
-22.10
-26.32
-30.22
-33.86
-37.48
-41.45
-46.29
-52.34
-59.61
-67.49
-74.80
-79.97
-81.51
-78.50
-70.84
-59.34
-45.36
-30.47
-16.06
-3.14
7.76
16.41
22.78
27.00
29.27
29.98
29.66
29.03
28.76
29.37
31.01
33.44
36.11
38.44
39.98
40.60
40.45
39.87
39.16
38.48
37.76
36.80
35.30
33.04
29.97
26.23
22.11
17.99
14.11
10.61
7.45
4.36
1.07
-2.65
-6.82
-11.32
-15.90
-20.37
-24.68
-28.95
-33.36
-38.13
-43.45
-49.47
-56.26
-63.67
-71.16
-77.68
-81.78
-82.05
-77.54
-68.29
-55.38
-40.58
-25.81
-12.55
-1.55
7.14
13.84
18.90
22.53
24.85
26.02
26.40
26.52
26.92
27.99
29.76
31.92
34.06
35.79
36.99
37.75
38.30
38.76
39.05
38.88
37.93
35.99
33.11
29.55
25.72
22.00
18.62
15.64
12.88
10.06
6.86
3.07
-1.34
-6.17
-11.13
-15.88
-20.23
-24.20
-27.98
-31.92
-36.40
-41.72
-47.98
-54.91
-61.77
-67.39
-70.45
-69.83
-65.00
-56.25
-44.53
-31.24
-17.77
-5.28
5.47
14.02
20.21
24.02
25.61
25.38
23.91
21.90
19.96
18.61
18.06
18.35
19.30
20.70
22.32
23.96
25.42
26.55
27.16
27.12
26.34
24.80
22.66
20.08
17.27
14.33
11.23
7.83
3.96
-0.44
-5.24
-10.20
-14.98
-19.29
-23.08
-26.46
-29.73
-33.33
-37.59
-42.68
-48.39
-54.06
-58.62
-60.90
-59.93
-55.29
-47.24
-36.70
-24.90
-13.12
-2.34
6.78
13.91
18.96
22.01
23.22
22.95
21.73
20.21
19.10
18.92
19.92
21.97
24.64
27.37
29.61
30.99
31.35
30.70
29.15
26.84
23.86
20.30
16.23
11.70
6.83
1.75
-3.41
-8.49
-13.38
-17.95
-22.14
-25.92
-29.33
-32.57
-35.95
-39.90
-44.84
-51.01
-58.32
-66.19
-73.59
-79.11
-81.32
-79.12
-72.14
-60.86
-46.59
-31.13
-16.20
-3.11
7.49
15.51
21.26
25.11
27.47
28.68
29.12
29.23
29.42
30.00
31.05
32.51
34.19
35.88
37.42
38.67
39.49
39.74
39.32
38.19
36.40
33.98
30.99
27.39
23.14
18.23
12.76
6.88
0.80
-5.30
-11.31
-17.15
-22.78
-28.25
-33.69
-39.42
-45.86
-53.39
-62.08
-71.43
-80.28
-86.97
-89.80
-87.56
-79.98
-67.84
-52.74
-36.49
-20.66
-6.25
6.23
16.60
24.75
30.61
34.22
35.91
36.31
36.22
36.37
37.23
38.89
41.19
43.83
46.49
48.95
51.01
52.50
53.21
52.91
51.40
48.56
44.48
39.46
33.99
28.58
23.57
19.06
14.81
10.48
5.77
0.59
-4.87
-10.30
-15.43
-20.25
-24.97
-30.08
-36.16
-43.66
-52.67
-62.75
-72.79
-81.24
-86.36
-86.76
-81.82
-71.83
-57.98
-41.94
-25.39
-9.72
4.21
15.94
25.33
32.41
37.30
40.26
41.69
42.11
42.13
42.32
43.09
44.60
46.74
49.17
51.50
53.36
54.56
55.06
54.91
54.15
52.69
50.39
47.11
42.89
37.90
32.51
27.07
21.83
16.80
11.85
6.79
1.54
-3.82
-9.11
-14.16
-18.97
-23.81
-29.17
-35.58
-43.36
-52.31
-61.61
-69.87
-75.44
-76.82
-73.11
-64.30
-51.22
-35.33
-18.34
-1.84
12.95
25.21
34.53
40.78
44.16
45.17
44.59
43.30
42.14
41.69
42.12
43.31
44.92
46.61
48.09
49.13
49.54
49.18
47.96
45.94
43.22
40.01
36.47
32.68
28.68
24.42
19.88
15.04
9.93
4.61
-0.76
-5.94
-10.71
-14.92
-18.60
-22.02
-25.68
-30.21
-36.21
-44.08
-53.77
-64.62
-75.29
-83.95
-88.72
-88.15
-81.77
-70.23
-55.11
-38.36
-21.75
-6.44
7.03
18.55
28.12
35.67
41.12
44.53
46.21
46.78
46.97
47.42
48.51
50.24
52.32
54.37
56.02
57.08
57.52
57.45
56.96
56.03
54.49
52.07
48.61
44.12
38.90
33.40
28.08
23.21
18.79
14.57
10.20
5.40
0.09
-5.57
-11.24
-16.59
-21.43
-25.87
-30.27
-35.20
-41.24
-48.74
-57.63
-67.25
-76.36
-83.37
-86.70
-85.21
-78.58
-67.47
-53.30
-37.79
-22.54
-8.57
3.66
14.08
22.76
29.69
34.88
38.43
40.71
42.29
43.79
45.61
47.79
50.08
52.09
53.53
54.30
54.52
54.33
53.80
52.90
51.51
49.46
46.65
43.09
38.87
34.19
29.39
24.83
20.78
17.36
14.39
11.44
7.95
3.57
-1.67
-7.33
-12.76
-17.42
-21.17
-24.38
-27.74
-31.97
-37.55
-44.55
-52.65
-61.14
-69.06
-75.26
-78.52
-77.83
-72.71
-63.45
-51.04
-37.02
-22.91
-9.90
1.37
10.69
18.10
23.67
27.46
29.60
30.43
30.54
30.57
31.07
32.24
33.87
35.54
36.80
37.43
37.52
37.37
37.32
37.50
37.76
37.74
37.00
35.26
32.47
28.88
24.92
21.07
17.65
14.77
12.28
9.90
7.33
4.41
1.15
-2.29
-5.74
-9.11
-12.40
-15.72
-19.19
-22.98
-27.26
-32.19
-37.88
-44.22
-50.71
-56.47
-60.35
-61.23
-58.44
-52.01
-42.66
-31.60
-20.15
-9.41
-0.14
7.32
12.85
16.52
18.50
19.10
18.79
18.14
17.70
17.84
18.73
20.25
22.12
23.98
25.53
26.58
27.06
27.04
26.58
25.73
24.50
22.85
20.71
18.04
14.91
11.48
8.07
4.94
2.24
-0.11
-2.41
-5.08
-8.37
-12.29
-16.55
-20.75
-24.57
-27.96
-31.15
-34.58
-38.69
-43.74
-49.71
-56.27
-62.71
-68.06
-71.22
-71.24
-67.63
-60.51
-50.68
-39.35
-27.82
-17.14
-7.95
-0.45
5.43
9.91
13.23
15.59
17.18
18.23
19.04
19.86
20.90
22.25
23.84
25.46
26.85
27.81
28.22
28.15
27.73
27.09
26.28
25.16
23.56
21.33
18.51
15.35
12.21
9.34
6.76
4.22
1.37
-2.06
-6.01
-10.15
-14.03
-17.31
-19.91
-22.06
-24.12
-26.51
-29.61
-33.72
-38.99
-45.29
-52.08
-58.35
-62.80
-64.28
-62.13
-56.47
-48.12
-38.28
-28.12
-18.48
-9.82
-2.32
3.91
8.79
12.28
14.42
15.47
15.88
16.18
16.81
17.94
19.50
21.17
22.62
23.67
24.34
24.81
25.30
25.88
26.46
26.80
26.60
25.66
23.96
21.62
18.91
16.12
13.48
11.09
8.87
6.60
4.00
0.84
-2.94
-7.18
-11.55
-15.74
-19.58
-23.18
-26.78
-30.76
-35.41
-40.81
-46.79
-52.85
-58.20
-61.91
-63.08
-61.06
-55.64
-47.18
-36.56
-25.00
-13.71
-3.73
4.37
10.39
14.47
16.92
18.13
18.41
18.07
17.39
16.67
16.19
16.21
16.84
18.05
19.70
21.56
23.39
25.03
26.35
27.27
27.67
27.42
26.38
24.54
21.97
18.90
15.62
12.40
9.39
6.57
3.79
0.91
-2.18
-5.49
-8.95
-12.46
-16.02
-19.72
-23.76
-28.38
-33.76
-39.85
-46.30
-52.40
-57.25
-59.90
-59.56
-55.87
-48.97
-39.53
-28.58
-17.32
-6.87
1.95
8.66
13.17
15.65
16.46
16.07
15.00
13.84
13.13
13.21
14.13
15.69
17.51
19.21
20.59
21.59
22.22
22.43
22.06
20.97
19.09
16.53
13.54
10.42
7.28
4.12
0.76
-2.88
-6.74
-10.63
-14.27
-17.55
-20.51
-23.39
-26.50
-30.15
-34.58
-39.87
-45.94
-52.43
-58.62
-63.45
-65.72
-64.41
-59.07
-50.06
-38.42
-25.59
-12.94
-1.51
8.18
15.93
21.78
25.83
28.21
29.17
29.09
28.46
27.82
27.58
27.97
28.95
30.29
31.65
32.69
33.16
33.03
32.43
31.58
30.62
29.53
28.17
26.35
23.95
21.00
17.62
13.90
9.88
5.48
0.62
-4.70
-10.31
-15.96
-21.33
-26.22
-30.63
-34.76
-39.06
-44.08
-50.28
-57.75
-66.03
-74.03
-80.33
-83.51
-82.56
-77.20
-67.88
-55.66
-41.87
-27.80
-14.49
-2.63
7.38
15.35
21.28
25.30
27.70
28.96
29.67
30.46
31.81
33.95
36.79
40.03
43.22
46.01
48.14
49.47
49.97
49.60
48.28
45.96
42.64
38.51
33.92
29.29
24.97
21.09
17.53
13.93
9.93
5.30
0.07
-5.52
-11.13
-16.46
-21.39
-25.93
-30.34
-35.05
-40.53
-47.20
-55.13
-63.91
-72.42
-79.16
-82.55
-81.41
-75.30
-64.70
-50.82
-35.23
-19.50
-4.88
7.80
18.13
26.07
31.80
35.65
37.96
39.18
39.71
39.98
40.38
41.20
42.53
44.26
46.14
47.89
49.32
50.31
50.87
50.99
50.60
49.54
47.64
44.86
41.34
37.40
33.35
29.42
25.57
21.61
17.30
12.49
7.25
1.83
-3.48
-8.48
-13.18
-17.85
-22.90
-28.77
-35.76
-43.77
-52.26
-60.22
-66.29
-69.12
-67.74
-61.84
-51.92
-39.14
-24.98
-10.90
1.87
12.51
20.51
25.70
28.19
28.42
27.10
25.14
23.44
22.69
23.24
25.07
27.87
31.19
34.50
37.28
39.10
39.67
38.93
37.10
34.52
31.53
28.30
24.75
20.66
15.83
10.26
4.21
-1.85
-7.47
-12.36
-16.56
-20.34
-24.15
-28.45
-33.62
-39.84
-46.96
-54.46
-61.38
-66.50
-68.53
-66.53
-60.13
-49.70
-36.35
-21.62
-7.05
6.08
16.98
25.34
31.17
34.71
36.29
36.36
35.46
34.17
33.04
32.51
32.81
33.95
35.71
37.77
39.75
41.32
42.22
42.30
41.49
39.80
37.25
33.88
29.74
24.92
19.52
13.68
7.50
1.08
-5.42
-11.82
-17.84
-23.28
-28.11
-32.61
-37.35
-43.01
-50.14
-58.86
-68.61
-78.19
-85.98
-90.36
-90.09
-84.61
-74.18
-59.79
-42.92
-25.24
-8.32
6.61
18.83
28.09
34.55
38.68
41.04
42.28
42.98
43.60
44.46
45.67
47.11
48.57
49.77
50.50
50.67
50.25
49.34
48.02
46.31
44.15
41.38
37.71
32.95
27.02
20.10
12.66
5.25
-1.64
-7.74
-13.16
-18.25
-23.55
-29.60
-36.82
-45.35
-54.94
-64.80
-73.70
-80.14
-82.69
-80.43
-73.20
-61.66
-47.08
-30.99
-14.85
0.18
13.35
24.19
32.55
38.45
42.08
43.75
43.86
42.97
41.75
40.91
41.05
42.42
44.90
47.89
50.63
52.49
53.15
52.61
51.14
48.95
46.18
42.82
38.81
34.13
28.83
23.03
16.92
10.72
4.65
-1.08
-6.44
-11.58
-16.90
-22.94
-30.17
-38.67
-47.99
-57.08
-64.50
-68.78
-68.80
-64.11
-55.07
-42.65
-28.20
-13.10
1.46
14.52
25.31
33.29
38.15
39.97
39.26
36.91
34.01
31.61
30.46
30.86
32.70
35.48
38.57
41.23
42.83
42.93
41.41
38.45
34.44
29.80
24.87
19.81
14.69
9.51
4.32
-0.81
-5.80
-10.65
-15.39
-20.12
-24.92
-29.96
-35.53
-41.99
-49.58
-58.17
-66.99
-74.62
-79.33
-79.60
-74.60
-64.53
-50.53
-34.25
-17.44
-1.55
12.38
23.66
31.96
37.24
39.81
40.28
39.51
38.31
37.39
37.15
37.78
39.20
41.19
43.38
45.27
46.37
46.32
45.00
42.56
39.29
35.49
31.33
26.88
22.13
17.06
11.64
5.83
-0.35
-6.82
-13.35
-19.57
-25.17
-30.02
-34.36
-38.74
-43.93
-50.67
-59.31
-69.61
-80.68
-90.99
-98.69
-102.03
-99.83
-91.81
-78.68
-61.96
-43.55
-25.18
-8.17
6.72
19.22
29.25
36.84
42.07
45.22
46.80
47.54
48.20
49.29
50.97
52.98
54.89
56.31
57.12
57.41
57.42
57.30
56.94
56.00
54.02
50.71
46.03
40.35
34.25
28.36
23.09
18.42
13.93
9.00
3.15
-3.67
-11.09
-18.45
-25.14
-30.92
-36.02
-41.11
-47.00
-54.34
-63.34
-73.56
-83.92
-92.75
-98.19
-98.69
-93.42
-82.59
-67.39
-49.54
-30.87
-12.91
3.24
16.99
28.03
36.38
42.32
46.26
48.72
50.23
51.18
51.94
52.80
54.02
55.70
57.70
59.71
61.31
62.23
62.41
61.97
61.08
59.70
57.67
54.78
50.93
46.28
41.12
35.83
30.72
25.92
21.46
17.25
13.14
8.90
4.29
-0.84
-6.48
-12.41
-18.33
-23.92
-29.04
-33.76
-38.34
-43.18
-48.69
-55.27
-63.17
-72.33
-82.15
-91.43
-98.43
-101.28
-98.57
-89.86
-75.87
-58.32
-39.40
-21.15
-5.06
8.12
18.25
25.54
30.38
33.23
34.62
35.18
35.57
36.33
37.82
40.11
42.96
45.98
48.72
50.83
52.15
52.66
52.41
51.45
49.82
47.54
44.65
41.23
37.37
33.24
29.01
24.88
20.98
17.37
13.98
10.57
6.86
2.60
-2.28
-7.62
-13.04
-18.15
-22.67
-26.64
-30.42
-34.64
-39.99
-46.93
-55.43
-64.80
-73.71
-80.49
-83.45
-81.42
-74.08
-62.03
-46.69
-29.81
-13.18
1.75
14.01
23.10
28.94
31.81
32.24
31.05
29.12
27.34
26.40
26.66
28.06
30.27
32.75
35.04
36.87
38.22
39.20
39.87
40.14
39.68
38.14
35.28
31.11
25.95
20.35
14.80
9.66
5.00
0.65
-3.67
-8.19
-13.06
-18.19
-23.42
-28.54
-33.38
-37.90
-42.23
-46.60
-51.36
-56.93
-63.67
-71.70
-80.63
-89.41
-96.42
-99.79
-98.02
-90.49
-77.76
-61.37
-43.40
-25.82
-10.01
3.33
14.12
22.51
28.73
32.95
35.38
36.31
36.25
35.81
35.59
36.00
37.18
38.97
41.00
42.92
44.47
45.58
46.30
46.67
46.55
45.67
43.67
40.37
35.87
30.66
25.41
20.71
16.79
13.46
10.13
6.18
1.21
-4.77
-11.39
-18.09
-24.37
-30.00
-35.09
-39.99
-45.22
-51.32
-58.69
-67.42
-77.02
-86.40
-93.96
-97.94
-96.94
-90.38
-78.67
-63.12
-45.55
-27.74
-11.14
3.38
15.34
24.56
31.07
35.00
36.79
37.07
36.63
36.19
36.27
37.10
38.56
40.39
42.27
43.96
45.30
46.25
46.77
46.77
46.08
44.48
41.75
37.82
32.91
27.46
22.04
17.08
12.71
8.76
4.80
0.47
-4.35
-9.46
-14.44
-18.91
-22.70
-25.96
-29.11
-32.70
-37.28
-43.22
-50.61
-59.07
-67.71
-75.15
-79.80
-80.29
-75.89
-66.84
-54.24
-39.75
-25.10
-11.63
-0.17
8.93
15.63
20.08
22.55
23.40
23.16
22.42
21.80
21.79
22.65
24.41
26.84
29.58
32.22
34.39
35.82
36.41
36.17
35.17
33.48
31.14
28.16
24.53
20.34
15.73
10.83
5.80
0.73
-4.27
-9.08
-13.53
-17.56
-21.21
-24.72
-28.55
-33.19
-39.03
-46.12
-53.95
-61.48
-67.28
-69.79
-67.86
-61.05
-49.85
-35.61
-20.15
-5.29
7.59
17.72
24.89
29.21
30.92
30.37
28.05
24.70
21.29
18.78
17.91
18.92
21.50
24.90
28.25
30.73
31.89
31.61
30.10
27.73
24.86
21.78
18.55
15.05
11.06
6.36
0.87
-5.24
-11.59
-17.73
-23.34
-28.44
-33.36
-38.69
-44.95
-52.37
-60.68
-69.07
-76.28
-80.92
-81.72
-77.90
-69.43
-57.00
-41.97
-25.95
-10.48
3.29
14.69
23.46
29.64
33.43
35.23
35.60
35.20
34.65
34.45
34.92
36.17
38.15
40.67
43.32
45.57
46.85
46.76
45.17
42.30
38.56
34.32
29.78
24.90
19.48
13.40
6.69
-0.38
-7.45
-14.17
-20.37
-26.09
-31.56
-37.14
-43.22
-50.16
-58.22
-67.35
-77.12
-86.54
-94.11
-98.11
-97.01
-90.04
-77.48
-60.74
-41.89
-23.12
-6.12
8.24
19.88
29.16
36.51
42.20
46.29
48.85
50.12
50.58
50.84
51.40
52.51
54.07
55.78
57.26
58.25
58.59
58.17
56.89
54.69
51.58
47.71
43.30
38.54
33.50
28.07
22.07
15.47
8.46
1.45
-5.08
-10.85
-15.84
-20.34
-24.78
-29.69
-35.54
-42.69
-51.31
-61.15
-71.36
-80.51
-86.78
-88.40
-84.27
-74.28
-59.55
-41.98
-23.72
-6.66
8.10
20.14
29.64
36.99
42.57
46.63
49.38
51.07
52.03
52.64
53.28
54.13
55.18
56.30
57.31
58.08
58.56
58.66
58.30
57.26
55.37
52.51
48.80
44.49
39.98
35.56
31.36
27.27
23.07
18.51
13.53
8.26
2.98
-2.03
-6.55
-10.58
-14.36
-18.32
-23.06
-29.12
-36.76
-45.73
-55.12
-63.42
-68.86
-69.95
-65.93
-57.04
-44.45
-29.87
-15.09
-1.54
9.85
18.61
24.64
28.06
29.17
28.51
26.77
24.83
23.49
23.34
24.65
27.25
30.67
34.25
37.34
39.42
40.30
39.99
38.72
36.77
34.35
31.57
28.43
24.92
20.99
16.70
12.19
7.64
3.26
-0.80
-4.46
-7.74
-10.76
-13.73
-16.96
-20.84
-25.70
-31.73
-38.76
-46.18
-52.86
-57.43
-58.56
-55.45
-48.02
-37.06
-23.87
-10.04
3.03
14.26
22.99
28.90
31.98
32.46
30.91
28.09
24.93
22.26
20.71
20.55
21.76
24.03
26.91
29.83
32.28
33.81
34.15
33.25
31.28
28.44
24.94
20.87
16.25
11.08
5.45
-0.46
-6.39
-12.06
-17.30
-22.01
-26.31
-30.44
-34.74
-39.64
-45.49
-52.50
-60.53
-69.02
-76.93
-82.90
-85.55
-83.90
-77.62
-67.21
-53.83
-39.01
-24.23
-10.66
0.94
10.28
17.35
22.38
25.71
27.78
29.05
29.98
31.01
32.39
34.23
36.40
38.61
40.54
41.97
42.88
43.37
43.51
43.25
42.34
40.39
37.12
32.43
26.48
19.64
12.36
5.12
-1.74
-8.03
-13.77
-19.18
-24.71
-30.85
-38.05
-46.40
-55.52
-64.44
-71.74
-75.89
-75.68
-70.55
-60.83
-47.64
-32.55
-17.18
-2.86
9.56
19.61
27.14
32.12
34.68
35.10
33.87
31.71
29.41
27.63
26.79
26.88
27.57
28.39
28.93
29.06
28.86
28.58
28.31
27.94
27.12
25.41
22.46
18.21
12.89
6.98
0.97
-4.71
-9.90
-14.68
-19.38
-24.49
-30.52
-37.77
-46.12
-54.88
-62.86
-68.61
-70.82
-68.64
-62.01
-51.64
-38.82
-25.07
-11.80
0.00
9.75
17.22
22.44
25.61
27.07
27.23
26.57
25.48
24.26
23.03
21.86
20.75
19.83
19.18
18.86
18.78
18.72
18.39
17.51
15.93
13.59
10.55
6.96
3.05
-1.02
-5.17
-9.60
-14.66
-20.81
-28.29
-36.88
-45.77
-53.68
-59.18
-61.05
-58.68
-52.14
-42.16
-29.93
-16.79
-4.05
7.23
16.35
22.97
27.10
29.01
29.17
28.13
26.47
24.71
23.23
22.25
21.89
22.08
22.75
23.68
24.58
25.08
24.84
23.61
21.36
18.19
14.29
9.83
4.94
-0.23
-5.48
-10.59
-15.45
-20.20
-25.24
-31.10
-38.14
-46.21
-54.53
-61.74
-66.32
-66.94
-62.92
-54.41
-42.40
-28.42
-14.12
-0.95
10.12
18.67
24.65
28.27
29.92
30.09
29.42
28.58
28.12
28.35
29.23
30.47
31.68
32.52
32.83
32.60
31.92
30.85
29.39
27.42
24.80
21.37
17.09
12.07
6.59
0.97
-4.47
-9.55
-14.26
-18.76
-23.29
-28.17
-33.63
-39.75
-46.24
-52.40
-57.11
-59.12
-57.42
-51.59
-42.03
-29.81
-16.34
-3.03
9.04
19.11
26.71
31.55
33.59
33.08
30.70
27.44
24.42
22.51
22.12
23.11
24.92
26.83
28.23
28.79
28.47
27.41
25.77
23.63
20.94
17.56
13.42
8.54
3.16
-2.36
-7.65
-12.46
-16.82
-21.07
-25.76
-31.43
-38.39
-46.45
-54.85
-62.36
-67.50
-68.98
-65.99
-58.46
-47.06
-33.11
-18.17
-3.74
9.02
19.40
27.09
32.07
34.50
34.69
33.15
30.61
27.93
25.96
25.27
26.02
27.88
30.18
32.18
33.31
33.29
32.20
30.25
27.66
24.52
20.73
16.12
10.58
4.19
-2.76
-9.81
-16.50
-22.51
-27.80
-32.65
-37.54
-43.04
-49.67
-57.66
-66.82
-76.39
-85.07
-91.23
-93.26
-90.03
-81.28
-67.72
-50.86
-32.62
-14.82
1.13
14.46
24.89
32.56
37.75
40.83
42.25
42.50
42.17
41.82
41.91
42.71
44.27
46.38
48.69
50.72
52.06
52.41
51.62
49.72
46.85
43.19
38.87
33.95
28.45
22.36
15.75
8.76
1.62
-5.43
-12.21
-18.62
-24.69
-30.60
-36.70
-43.43
-51.17
-60.01
-69.63
-79.09
-86.97
-91.63
-91.64
-86.23
-75.50
-60.47
-42.77
-24.20
-6.40
9.44
22.65
32.99
40.52
45.50
48.35
49.64
50.06
50.25
50.76
51.78
53.19
54.65
55.83
56.55
56.85
56.88
56.68
56.14
54.98
52.95
49.91
45.98
41.42
36.58
31.68
26.75
21.67
16.27
10.42
4.14
-2.41
-8.93
-15.16
-20.99
-26.55
-32.20
-38.43
-45.69
-54.17
-63.69
-73.59
-82.64
-89.20
-91.58
-88.47
-79.44
-65.18
-47.34
-28.12
-9.60
6.68
19.93
29.99
37.10
41.62
44.04
44.87
44.75
44.39
44.39
45.15
46.71
48.81
51.03
52.97
54.36
55.09
55.12
54.39
52.79
50.18
46.54
42.06
37.11
32.14
27.47
23.23
19.29
15.35
11.19
6.67
1.84
-3.16
-8.15
-12.97
-17.58
-22.07
-26.69
-31.81
-37.83
-44.92
-52.82
-60.74
-67.40
-71.30
-71.12
-66.12
-56.36
-42.78
-26.88
-10.46
4.84
17.80
27.66
34.18
37.46
37.92
36.19
33.09
29.52
26.33
24.16
23.35
23.91
25.61
28.08
30.91
33.69
35.95
37.33
37.53
36.47
34.28
31.25
27.66
23.76
19.62
15.24
10.53
5.43
-0.02
-5.71
-11.49
-17.17
-22.59
-27.69
-32.55
-37.39
-42.60
-48.57
-55.61
-63.67
-72.22
-80.21
-86.20
-88.67
-86.40
-78.89
-66.50
-50.44
-32.42
-14.31
2.32
16.36
27.26
34.87
39.39
41.16
40.72
38.78
36.18
33.72
32.09
31.68
32.53
34.39
36.80
39.27
41.37
42.79
43.37
43.02
41.75
39.56
36.55
32.82
28.55
23.88
18.93
13.74
8.27
2.47
-3.65
-9.92
-16.13
-22.08
-27.65
-32.93
-38.17
-43.72
-49.98
-57.20
-65.33
-73.84
-81.63
-87.15
-88.79
-85.37
-76.57
-63.14
-46.69
-29.24
-12.65
1.78
13.44
22.30
28.65
32.84
35.18
36.00
35.75
34.98
34.29
34.18
34.84
36.17
37.86
39.53
40.90
41.85
42.35
42.38
41.87
40.70
38.77
36.05
32.57
28.37
23.46
17.83
11.53
4.76
-2.12
-8.66
-14.56
-19.72
-24.35
-28.86
-33.73
-39.35
-45.93
-53.48
-61.67
-69.77
-76.63
-80.80
-80.92
-76.20
-66.78
-53.72
-38.73
-23.57
-9.61
2.42
12.32
20.17
26.05
29.97
31.91
32.04
30.80
28.93
27.25
26.41
26.71
28.03
29.85
31.61
32.84
33.38
33.30
32.75
31.80
30.34
28.14
25.03
20.98
16.18
10.98
5.79
0.88
-3.59
-7.62
-11.34
-14.92
-18.52
-22.37
-26.73
-31.87
-37.88
-44.61
-51.45
-57.37
-61.07
-61.43
-57.79
-50.26
-39.61
-27.06
-13.98
-1.54
9.33
18.01
24.12
27.54
28.44
27.25
24.73
21.77
19.25
17.85
17.84
19.06
20.91
22.65
23.62
23.52
22.47
20.88
19.14
17.43
15.55
13.09
9.71
5.34
0.25
-5.10
-10.25
-14.94
-19.19
-23.27
-27.55
-32.38
-38.04
-44.59
-51.77
-58.94
-65.05
-68.85
-69.14
-65.17
-56.89
-44.96
-30.66
-15.55
-1.11
11.51
21.56
28.74
33.07
34.83
34.50
32.68
30.08
27.39
25.24
24.04
23.93
24.76
26.11
27.43
28.19
28.06
26.99
25.16
22.83
20.19
17.19
13.60
9.16
3.76
-2.39
-8.79
-14.87
-20.21
-24.79
-28.96
-33.33
-38.46
-44.69
-52.00
-60.04
-68.12
-75.37
-80.72
-83.05
-81.36
-75.11
-64.40
-50.11
-33.81
-17.28
-2.11
10.68
20.72
28.13
33.28
36.50
38.08
38.33
37.71
36.80
36.19
36.30
37.17
38.50
39.77
40.51
40.47
39.73
38.55
37.19
35.74
34.02
31.66
28.31
23.79
18.20
11.94
5.50
-0.68
-6.36
-11.57
-16.52
-21.56
-27.06
-33.34
-40.60
-48.79
-57.47
-65.72
-72.26
-75.66
-74.74
-68.93
-58.52
-44.60
-28.76
-12.70
2.27
15.31
26.12
34.71
41.22
45.79
48.54
49.69
49.59
48.77
47.80
47.16
47.05
47.48
48.24
49.11
49.94
50.64
51.17
51.39
51.07
49.92
47.73
44.52
40.51
36.07
31.55
27.12
22.71
18.07
12.94
7.18
0.89
-5.65
-12.00
-17.79
-22.86
-27.30
-31.53
-36.17
-41.84
-48.94
-57.33
-66.20
-74.04
-79.03
-79.52
-74.59
-64.41
-50.21
-33.90
-17.42
-2.34
10.45
20.59
28.09
33.09
35.82
36.68
36.26
35.36
34.72
34.92
36.14
38.14
40.48
42.68
44.37
45.47
46.02
46.14
45.80
44.85
43.04
40.20
36.36
31.81
26.95
22.13
17.54
13.14
8.76
4.22
-0.56
-5.47
-10.31
-14.82
-18.82
-22.32
-25.60
-29.12
-33.50
-39.25
-46.52
-54.91
-63.41
-70.52
-74.73
-74.76
-70.05
-60.82
-48.04
-33.14
-17.71
-3.17
9.41
19.36
26.44
30.71
32.47
32.32
30.99
29.30
27.99
27.63
28.41
30.22
32.69
35.34
37.77
39.67
40.86
41.19
40.57
38.92
36.27
32.82
28.85
24.72
20.63
16.61
12.49
8.00
2.97
-2.59
-8.42
-14.13
-19.35
-23.92
-27.90
-31.64
-35.66
-40.52
-46.67
-54.32
-63.24
-72.67
-81.37
-87.77
-90.33
-88.08
-80.79
-69.19
-54.69
-38.99
-23.62
-9.67
2.32
12.21
20.07
26.03
30.23
32.94
34.50
35.38
36.05
36.87
38.06
39.63
41.49
43.44
45.29
46.85
47.91
48.31
47.89
46.57
44.37
41.39
37.80
33.72
29.25
24.42
19.24
13.75
7.99
2.05
-3.95
-9.86
-15.57
-20.94
-25.99
-30.86
-35.90
-41.58
-48.33
-56.29
-65.08
-73.63
-80.38
-83.63
-82.06
-75.19
-63.52
-48.45
-31.81
-15.35
-0.35
12.45
22.77
30.54
35.80
38.70
39.60
39.13
38.12
37.33
37.26
37.98
39.24
40.71
42.14
43.52
44.85
46.07
46.91
46.94
45.83
43.46
40.00
35.90
31.59
27.39
23.39
19.55
15.78
11.98
8.12
4.14
0.02
-4.24
-8.56
-12.82
-16.93
-20.95
-25.26
-30.40
-36.94
-45.10
-54.40
-63.59
-70.86
-74.38
-72.87
-66.07
-54.76
-40.51
-25.16
-10.33
2.80
13.58
21.74
27.22
30.13
30.75
29.60
27.37
24.87
22.87
21.93
22.34
24.00
26.54
29.37
31.89
33.61
34.27
33.84
32.45
30.31
27.61
24.47
20.96
17.11
12.94
8.47
3.72
-1.26
-6.39
-11.50
-16.43
-21.03
-25.29
-29.32
-33.41
-37.95
-43.35
-49.88
-57.46
-65.44
-72.62
-77.41
-78.24
-74.14
-65.04
-51.81
-35.98
-19.27
-3.20
11.19
23.23
32.57
39.01
42.58
43.58
42.58
40.38
37.82
35.60
34.18
33.72
34.15
35.26
36.74
38.20
39.26
39.58
38.87
37.06
34.24
30.65
26.52
22.05
17.31
12.24
6.75
0.80
-5.56
-12.17
-18.78
-25.10
-30.91
-36.13
-40.85
-45.46
-50.53
-56.69
-64.28
-73.14
-82.38
-90.49
-95.67
-96.33
-91.59
-81.58
-67.30
-50.41
-32.69
-15.65
-0.32
12.76
23.40
31.57
37.31
40.75
42.20
42.19
41.38
40.46
40.02
40.31
41.34
42.89
44.61
46.13
47.11
47.32
46.61
45.05
42.81
40.15
37.26
34.18
30.73
26.64
21.75
16.10
9.96
3.70
-2.36
-8.12
-13.63
-19.06
-24.66
-30.63
-37.26
-44.74
-53.18
-62.24
-71.07
-78.26
-82.15
-81.33
-75.17
-64.01
-49.15
-32.43
-15.68
-0.36
12.63
22.89
30.29
34.88
36.91
36.93
35.85
34.76
34.64
35.99
38.69
42.08
45.36
47.86
49.32
49.84
49.61
48.82
47.52
45.65
43.15
39.99
36.13
31.53
26.16
20.10
13.60
7.08
0.94
-4.57
-9.46
-14.01
-18.64
-23.80
-29.82
-36.92
-45.02
-53.71
-62.08
-68.83
-72.47
-71.73
-66.00
-55.53
-41.45
-25.40
-9.15
5.84
18.56
28.48
35.34
39.17
40.18
38.86
36.05
32.78
30.03
28.53
28.53
29.84
31.91
34.14
36.00
37.13
37.34
36.56
34.79
32.13
28.68
24.51
19.62
13.95
7.52
0.50
-6.74
-13.73
-20.08
-25.65
-30.59
-35.27
-40.20
-45.86
-52.65
-60.75
-69.94
-79.48
-88.01
-93.82
-95.26
-91.24
-81.68
-67.52
-50.42
-32.33
-14.86
0.82
14.08
24.65
32.49
37.70
40.55
41.51
41.19
40.30
39.49
39.19
39.58
40.54
41.80
43.02
43.87
44.12
43.64
42.39
40.43
37.88
34.85
31.43
27.67
23.47
18.73
13.29
7.15
0.45
-6.46
-13.12
-19.16
-24.47
-29.25
-33.99
-39.33
-45.84
-53.78
-62.95
-72.56
-81.38
-87.86
-90.53
-88.31
-80.85
-68.58
-52.73
-34.96
-17.06
-0.51
13.69
25.16
33.95
40.43
44.99
48.02
49.80
50.63
50.84
50.80
50.83
51.15
51.75
52.45
52.98
53.14
52.80
51.91
50.46
48.37
45.52
41.87
37.45
32.50
27.33
22.30
17.56
13.05
8.46
3.48
-2.09
-8.11
-14.24
-20.09
-25.40
-30.25
-35.03
-40.33
-46.77
-54.74
-64.19
-74.47
-84.33
-91.98
-95.55
-93.66
-85.80
-72.67
-55.93
-37.72
-20.02
-4.21
9.01
19.54
27.46
32.96
36.27
37.76
38.01
37.77
37.74
38.40
39.88
42.01
44.43
46.84
49.01
50.88
52.46
53.73
54.57
54.73
53.90
51.80
48.39
43.88
38.77
33.64
28.92
24.75
20.93
17.06
12.76
7.85
2.46
-3.11
-8.51
-13.48
-17.97
-22.19
-26.48
-31.32
-37.13
-44.18
-52.45
-61.48
-70.39
-77.83
-82.28
-82.38
-77.35
-67.24
-53.03
-36.37
-19.19
-3.22
10.30
20.78
28.12
32.51
34.28
33.86
31.85
29.04
26.40
24.80
24.80
26.46
29.27
32.47
35.22
37.00
37.62
37.25
36.11
34.42
32.26
29.58
26.32
22.45
18.03
13.17
8.02
2.71
-2.66
-7.98
-13.13
-17.94
-22.31
-26.23
-29.90
-33.76
-38.41
-44.40
-51.90
-60.51
-69.09
-76.03
-79.60
-78.48
-72.20
-61.22
-46.86
-30.83
-14.83
-0.17
12.29
22.14
29.24
33.69
35.73
35.86
34.79
33.36
32.31
32.08
32.75
34.03
35.50
36.80
37.75
38.33
38.60
38.52
37.95
36.63
34.35
31.02
26.75
21.78
16.46
11.06
5.72
0.34
-5.25
-11.21
-17.51
-23.93
-30.10
-35.70
-40.70
-45.38
-50.34
-56.20
-63.33
-71.55
-80.10
-87.69
-92.78
-93.90
-90.11
-81.20
-67.85
-51.45
-33.80
-16.69
-1.50
10.95
20.44
27.18
31.59
34.16
35.40
35.76
35.73
35.73
36.12
37.11
38.65
40.55
42.50
44.23
45.58
46.50
46.97
46.94
46.25
44.68
42.11
38.54
34.17
29.30
24.17
18.90
13.48
7.85
2.04
-3.84
-9.60
-15.14
-20.49
-25.79
-31.31
-37.29
-44.06
-51.84
-60.72
-70.38
-79.94
-87.93
-92.63
-92.49
-86.73
-75.59
-60.33
-42.82
-24.99
-8.41
5.93
17.55
26.35
32.46
36.17
37.93
38.37
38.14
37.90
38.05
38.80
40.11
41.81
43.69
45.53
47.21
48.60
49.62
50.12
49.95
48.95
46.97
43.98
40.05
35.44
30.46
25.42
20.48
15.60
10.60
5.25
-0.47
-6.39
-12.14
-17.36
-21.89
-25.97
-30.17
-35.22
-41.74
-49.93
-59.35
-69.01
-77.41
-82.87
-83.96
-79.84
-70.56
-57.07
-40.94
-24.00
-7.86
6.30
17.85
26.56
32.47
35.80
36.94
36.52
35.34
34.27
34.00
34.88
36.81
39.40
42.18
44.72
46.79
48.32
49.18
49.25
48.33
46.28
43.11
39.04
34.48
29.86
25.47
21.34
17.28
12.96
8.10
2.57
-3.51
-9.81
-15.97
-21.70
-27.01
-32.17
-37.66
-43.97
-51.29
-59.30
-67.06
-73.12
-75.93
-74.27
-67.74
-56.87
-43.01
-27.86
-12.99
0.48
11.88
20.93
27.45
31.34
32.72
31.94
29.78
27.25
25.35
24.83
25.92
28.29
31.26
34.04
35.97
36.72
36.30
34.96
33.01
30.68
28.04
25.00
21.41
17.12
12.10
6.43
0.28
-6.13
-12.59
-18.91
-25.00
-30.84
-36.54
-42.30
-48.52
-55.58
-63.71
-72.71
-81.79
-89.61
-94.52
-95.01
-90.13
-79.90
-65.21
-47.69
-29.20
-11.46
4.28
17.36
27.57
35.02
39.96
42.67
43.51
43.00
41.79
40.62
40.10
40.59
42.05
44.08
46.08
47.44
47.75
46.95
45.23
42.89
40.13
36.93
33.08
28.34
22.60
15.98
8.83
1.52
-5.63
-12.45
-18.90
-24.97
-30.71
-36.23
-41.83
-47.96
-55.14
-63.61
-73.09
-82.62
-90.61
-95.25
-95.01
-89.09
-77.74
-62.19
-44.32
-26.10
-9.20
5.41
17.41
26.92
34.26
39.65
43.27
45.30
46.09
46.21
46.36
47.11
48.68
50.88
53.21
55.15
56.34
56.75
56.52
55.82
54.68
52.97
50.53
47.14
42.73
37.33
31.05
24.10
16.73
9.25
1.93
-5.06
-11.74
-18.30
-25.02
-32.28
-40.40
-49.65
-60.06
-71.21
-82.10
-91.14
-96.46
-96.44
-90.26
-78.26
-61.93
-43.40
-24.80
-7.73
6.95
19.03
28.57
35.61
40.16
42.33
42.51
41.48
40.23
39.67
40.31
42.10
44.50
46.81
48.47
49.20
49.12
48.49
47.56
46.37
44.74
42.35
38.88
34.22
28.45
21.84
14.78
7.66
0.81
-5.53
-11.27
-16.49
-21.46
-26.58
-32.34
-39.13
-47.10
-55.96
-64.88
-72.57
-77.50
-78.31
-74.16
-65.07
-51.87
-36.02
-19.20
-2.90
11.67
23.69
32.65
38.28
40.62
40.09
37.61
34.38
31.72
30.60
31.47
34.08
37.66
41.30
44.19
45.91
46.41
45.91
44.67
42.84
40.43
37.33
33.45
28.76
23.39
17.60
11.70
6.00
0.73
-4.06
-8.43
-12.56
-16.74
-21.36
-26.74
-33.09
-40.21
-47.46
-53.77
-57.78
-58.28
-54.50
-46.37
-34.56
-20.40
-5.56
8.24
19.53
27.40
31.51
32.16
30.03
26.02
21.09
16.17
12.05
9.35
8.36
8.99
10.82
13.19
15.53
17.52
19.08
20.28
21.06
21.12
20.00
17.26
12.79
6.90
0.25
-6.44
-12.58
-18.01
-22.92
-27.75
-33.04
-39.24
-46.47
-54.45
-62.41
-69.13
-73.20
-73.35
-68.85
-59.76
-46.94
-31.85
-16.21
-1.64
10.62
19.79
25.58
28.16
28.05
26.02
22.95
19.71
16.92
14.95
13.89
13.61
13.94
14.69
15.70
16.74
17.55
17.74
16.98
15.04
11.99
8.12
3.81
-0.61
-5.06
-9.67
-14.73
-20.56
-27.38
-35.28
-44.11
-53.38
-62.14
-69.00
-72.43
-71.20
-64.83
-53.89
-39.86
-24.58
-9.78
3.41
14.55
23.57
30.54
35.43
38.14
38.68
37.35
34.75
31.66
28.88
26.96
26.17
26.49
27.62
29.13
30.50
31.21
30.81
29.02
25.77
21.19
15.59
9.33
2.72
-4.05
-11.00
-18.32
-26.32
-35.22
-44.93
-54.85
-63.86
-70.43
-73.03
-70.62
-63.00
-50.93
-35.95
-19.89
-4.40
9.38
20.91
30.03
36.79
41.27
43.64
44.22
43.51
42.12
40.61
39.39
38.60
38.24
38.18
38.35
38.60
38.73
38.42
37.31
35.08
31.57
26.83
21.09
14.65
7.81
0.82
-6.19
-13.23
-20.54
-28.59
-37.92
-48.82
-60.90
-72.91
-82.82
-88.34
-87.70
-80.25
-66.74
-49.02
-29.46
-10.20
7.35
22.57
35.43
46.08
54.51
60.52
63.86
64.56
63.15
60.63
58.22
56.90
57.11
58.55
60.47
61.95
62.37
61.55
59.79
57.65
55.63
53.96
52.46
50.64
47.90
43.82
38.40
32.13
25.93
20.78
17.38
15.81
15.36
14.64
12.08
6.57
-1.77
-11.20
-18.56
-20.19
-13.08
4.10
30.63
64.03
100.70
136.45
166.90
187.81
195.50
187.49
163.07
123.38
70.93
8.78
-59.93
-131.64
-201.92
-265.23
-315.73
-348.93
-363.35
-361.19
-347.51
-328.34
-308.57
-290.63
-274.02
-256.30
-234.69
-207.75
-176.42
-144.04
-115.07
-93.29
-80.15
-74.23
-72.12
-70.19
-66.32
-60.27
-52.97
-45.00
-35.87
-24.13
-8.63
10.29
30.54
49.02
62.97
71.18
74.46
75.31
76.83
81.61
90.61
102.78
115.27
124.51
127.70
123.92
114.53
102.30
89.87
78.42
67.35
55.18
41.06
25.74
11.33
0.02
-7.46
-12.21
-16.35
-21.26
-26.26
-28.50
-24.32
-11.16
11.09
39.98
71.53
101.78
127.81
148.03
161.79
169.08
170.39
166.78
159.89
151.58
143.36
135.89
128.87
121.37
112.45
101.67
89.19
75.65
61.85
48.27
35.06
22.06
9.28
-2.73
-12.63
-18.60
-18.99
-13.08
-1.51
13.87
30.45
45.13
54.42
54.58
42.53
17.37
-18.03
-56.63
-88.68
-104.71
-98.92
-70.92
-25.38
30.17
87.74
140.53
183.17
211.57
222.97
216.77
195.31
163.97
129.90
99.93
78.54
66.80
62.65
62.09
60.92
56.07
46.30
32.14
15.14
-2.85
-20.42
-36.78
-51.48
-64.07
-73.86
-80.10
-82.31
-80.54
-75.24
-66.81
-55.12
-39.22
-17.57
11.40
48.57
93.22
142.52
191.42
233.44
262.29
273.86
267.77
247.60
219.52
190.07
163.75
141.83
122.69
102.91
78.76
47.33
7.45
-39.32
-88.23
-131.63
-160.93
-169.66
-156.54
-126.85
-90.94
-60.50
-44.30
-45.38
-61.15
-85.84
-113.66
-141.15
-167.55
-193.82
-221.42
-251.86
-286.87
-328.47
-378.06
-434.91
-494.88
-550.46
-592.70
-614.45
-612.93
-590.73
-554.37
-511.60
-468.72
-429.16
-393.60
-361.00
-329.66
-297.82
-263.75
-226.02
-183.88
-137.62
-88.77
-39.50
8.13
53.02
95.58
137.77
182.57
233.01
290.62
354.15
418.88
477.34
521.39
544.98
546.30
528.29
497.23
460.06
421.86
384.65
347.78
309.40
268.05
223.36
176.11
127.82
80.46
36.33
-2.05
-32.41
-53.40
-65.05
-68.90
-67.72
-64.86
-63.82
-67.88
-79.79
-101.27
-132.28
-170.44
-210.99
-247.71
-274.39
-286.73
-283.44
-266.34
-239.21
-206.04
-169.57
-130.74
-89.34
-45.33
-0.05
43.48
81.23
109.37
125.51
129.18
121.79
106.18
86.05
65.46
48.20
37.08
33.22
35.72
42.10
49.31
54.84
57.45
57.13
54.64
50.73
45.84
40.22
34.07
27.94
22.65
19.19
18.44
20.97
26.95
36.03
47.39
59.82
71.84
81.93
88.77
91.40
89.42
83.00
72.93
60.47
47.24
34.92
24.97
18.27
15.03
14.74
16.32
18.45
19.96
20.06
18.56
15.73
12.16
8.38
4.71
1.14
-2.55
-6.57
-10.91
-15.24
-18.98
-21.36
-21.68
-19.41
-14.39
-6.86
2.48
12.56
22.12
29.97
35.27
37.60
36.99
33.84
28.76
22.47
15.76
9.45
4.25
0.59
-1.39
-1.90
-1.29
0.05
1.80
3.73
5.62
7.21
8.19
8.27
7.20
4.97
1.77
-1.91
-5.41
-8.12
-9.67
-10.16
-10.21
-10.71
-12.45
-15.61
-19.55
-22.98
-24.30
-22.27
-16.44
-7.22
4.24
16.49
28.06
37.78
44.83
48.83
49.77
48.06
44.42
39.72
34.88
30.71
27.85
26.69
27.32
29.55
32.87
36.60
39.95
42.13
42.36
39.90
34.15
24.99
13.17
0.60
-9.99
-15.74
-14.66
-6.35
7.69
24.64
41.14
54.37
62.59
65.40
63.52
58.43
51.98
46.03
42.08
41.01
42.90
46.99
51.90
55.88
57.03
53.76
44.93
30.09
9.44
-16.43
-47.18
-83.13
-125.08
-173.33
-226.02
-278.03
-321.43
-347.70
-351.08
-331.23
-293.75
-248.02
-203.68
-167.24
-140.85
-123.17
-111.52
-103.94
-99.78
-99.15
-101.77
-106.47
-111.34
-114.51
-114.83
-111.90
-105.93
-97.22
-85.97
-72.29
-56.44
-39.03
-20.98
-3.45
12.36
25.34
34.52
39.31
39.53
35.59
28.49
19.68
10.75
3.07
-2.57
-6.09
-8.09
-9.56
-11.62
-15.11
-20.49
-27.72
-36.50
-46.47
-57.41
-69.36
-82.48
-96.92
-112.69
-129.77
-148.29
-168.48
-190.29
-212.87
-234.15
-250.97
-259.93
-258.55
-246.20
-224.39
-196.00
-164.22
-131.41
-98.77
-66.55
-34.69
-3.36
26.99
55.92
83.35
109.83
136.42
164.39
194.73
227.58
261.96
295.79
326.18
350.13
365.13
369.75
363.85
348.59
326.11
298.98
269.68
240.17
211.68
184.67
158.97
133.96
108.84
82.88
55.72
27.71
0.11
-24.94
-44.79
-57.03
-60.19
-54.29
-40.82
-22.27
-1.40
19.38
38.38
54.61
67.60
77.15
83.16
85.76
85.32
82.59
78.56
74.22
70.28
66.95
64.06
61.28
58.47
55.78
53.55
52.05
51.18
50.35
48.79
45.79
41.14
35.21
28.78
22.63
17.14
12.11
6.81
0.28
-8.24
-18.92
-31.23
-43.88
-55.08
-62.95
-65.95
-63.30
-55.13
-42.51
-27.15
-10.96
4.44
18.00
29.41
38.86
46.84
53.79
59.95
65.41
70.30
74.85
79.43
84.33
89.60
94.91
99.67
103.25
105.19
105.33
103.85
101.24
98.49
96.97
98.26
103.68
113.74
127.83
144.43
161.68
178.01
192.47
204.51
213.46
218.14
216.96
208.51
192.18
168.68
139.79
107.75
74.61
41.73
9.72
-21.36
-51.94
-82.98
-115.94
-152.36
-193.30
-238.57
-286.26
-332.81
-373.48
-403.17
-417.33
-412.83
-388.89
-347.72
-294.64
-237.19
-183.60
-140.70
-112.33
-98.71
-97.20
-103.71
-114.17
-125.36
-135.09
-141.90
-144.97
-144.19
-140.24
-134.67
-129.55
-126.81
-127.63
-132.07
-139.13
-147.00
-153.65
-157.23
-156.37
-150.33
-138.89
-122.21
-100.79
-75.34
-46.81
-16.49
13.92
42.44
67.08
86.32
99.59
107.41
111.22
112.75
113.36
113.73
113.88
113.59
112.74
111.51
110.14
108.62
106.66
103.88
100.13
95.66
90.95
86.20
80.95
74.11
64.43
51.31
35.21
17.60
0.29
-15.47
-29.47
-42.51
-55.94
-70.94
-88.08
-107.20
-127.52
-147.93
-167.03
-183.26
-195.04
-200.98
-200.44
-193.76
-182.30
-168.04
-152.83
-137.60
-121.98
-104.43
-82.88
-55.71
-22.55
15.42
55.72
95.34
131.50
162.27
186.83
205.39
218.97
229.05
237.14
244.49
251.69
258.43
263.68
266.06
264.40
258.29
248.43
236.41
224.29
213.82
205.73
199.24
192.19
181.60
164.84
140.71
110.33
77.00
45.40
20.07
3.98
-2.42
-1.01
4.81
11.48
16.41
18.43
17.53
14.19
8.81
1.55
-7.44
-17.63
-27.94
-36.96
-43.55
-47.32
-48.68
-48.52
-47.59
-46.07
-43.65
-39.92
-34.89
-29.24
-24.07
-20.43
-18.84
-19.17
-20.87
-23.39
-26.46
-30.07
-34.22
-38.64
-42.80
-46.07
-48.08
-48.95
-49.23
-49.63
-50.58
-51.94
-53.00
-52.75
-50.33
-45.46
-38.51
-30.43
-22.35
-15.25
-9.82
-6.37
-4.97
-5.48
-7.59
-10.75
-14.22
-17.15
-18.81
-18.79
-17.14
-14.39
-11.25
-8.46
-6.50
-5.52
-5.43
-5.95
-6.83
-7.82
-8.74
-9.40
-9.66
-9.43
-8.74
-7.74
-6.67
-5.77
-5.21
-5.00
-4.87
-4.23
-2.19
2.30
10.12
21.76
37.04
55.13
74.72
94.29
112.50
128.43
141.87
153.22
163.34
173.12
183.07
193.11
202.62
210.68
216.45
219.38
219.52
217.57
214.78
212.61
212.05
212.89
213.29
209.86
198.48
175.75
140.29
93.47
39.27
-16.91
-69.72
-115.29
-152.00
-180.35
-202.27
-219.86
-234.33
-245.34
-251.23
-249.80
-239.55
-220.60
-194.90
-165.54
-135.82
-108.11
-83.73
-63.45
-48.31
-40.18
-41.68
-55.26
-82.11
-121.25
-169.37
-221.29
-270.95
-312.30
-340.22
-351.49
-345.43
-324.38
-293.13
-257.68
-223.53
-194.26
-171.29
-154.31
-142.32
-134.39
-129.81
-128.01
-128.23
-129.43
-130.23
-128.82
-123.00
-110.49
-89.68
-60.55
-25.25
12.35
48.07
79.07
104.76
126.32
145.17
161.54
174.02
180.42
179.37
171.44
159.15
145.82
134.10
124.87
117.32
109.73
100.73
90.12
79.01
69.11
61.81
57.41
55.00
52.91
49.51
43.92
36.23
27.29
18.10
9.37
1.31
-6.25
-13.51
-20.51
-27.04
-32.78
-37.52
-41.09
-43.36
-44.15
-43.11
-39.90
-34.31
-26.48
-16.82
-6.02
5.22
16.23
26.42
35.21
42.01
46.21
47.45
45.75
41.56
35.76
29.37
23.34
18.44
15.08
13.39
13.21
14.16
15.65
17.04
17.75
17.39
15.82
13.12
9.53
5.36
0.89
-3.65
-8.09
-12.39
-16.66
-21.05
-25.61
-30.07
-33.76
-35.67
-34.82
-30.60
-23.15
-13.34
-2.54
7.81
16.56
22.99
26.85
28.17
27.15
24.11
19.54
14.12
8.65
3.93
0.54
-1.30
-1.75
-1.18
-0.13
1.00
1.88
2.35
2.32
1.77
0.71
-0.90
-3.12
-6.08
-9.95
-14.92
-20.99
-27.92
-35.03
-41.32
-45.64
-46.89
-44.46
-38.28
-28.97
-17.66
-5.68
5.67
15.45
23.12
28.49
31.61
32.61
31.69
29.06
25.10
20.33
15.38
10.96
7.63
5.60
4.73
4.50
4.27
3.48
1.88
-0.50
-3.43
-6.65
-10.04
-13.61
-17.44
-21.63
-26.25
-31.42
-37.22
-43.52
-49.84
-55.21
-58.34
-57.99
-53.43
-44.82
-33.17
-19.99
-6.79
5.26
15.51
23.70
29.70
33.47
34.98
34.38
32.02
28.51
24.51
20.66
17.41
14.96
13.31
12.26
11.51
10.75
9.69
8.21
6.30
4.04
1.54
-1.20
-4.30
-7.99
-12.47
-17.86
-24.13
-31.12
-38.46
-45.58
-51.67
-55.65
-56.44
-53.26
-45.91
-35.03
-21.88
-8.10
4.81
15.83
24.42
30.57
34.48
36.44
36.81
35.97
34.40
32.58
30.91
29.61
28.71
28.13
27.71
27.42
27.26
27.24
27.22
26.86
25.75
23.54
20.14
15.73
10.76
5.67
0.79
-3.84
-8.44
-13.42
-19.21
-26.03
-33.75
-41.74
-48.93
-53.98
-55.66
-53.13
-46.27
-35.66
-22.46
-8.11
5.98
18.62
29.01
36.75
41.83
44.54
45.32
44.72
43.35
41.75
40.41
39.66
39.59
40.03
40.63
40.96
40.75
39.91
38.59
37.03
35.33
33.46
31.15
28.11
24.13
19.30
13.91
8.48
3.43
-1.01
-4.94
-8.67
-12.61
-17.11
-22.37
-28.39
-34.97
-41.65
-47.68
-52.00
-53.48
-51.18
-44.73
-34.48
-21.51
-7.31
6.58
18.93
28.98
36.35
41.00
43.08
42.91
41.05
38.28
35.48
33.40
32.51
32.87
34.18
35.96
37.76
39.26
40.28
40.77
40.66
39.85
38.23
35.78
32.57
28.84
24.84
20.75
16.62
12.34
7.78
2.86
-2.27
-7.39
-12.16
-16.45
-20.28
-23.94
-27.87
-32.55
-38.34
-45.34
-53.25
-61.23
-67.99
-72.06
-72.17
-67.66
-58.78
-46.55
-32.46
-18.03
-4.43
7.62
17.81
26.06
32.35
36.70
39.27
40.34
40.40
40.00
39.70
39.80
40.36
41.18
41.89
42.19
41.95
41.24
40.26
39.18
38.02
36.61
34.67
32.04
28.73
24.98
21.10
17.31
13.60
9.77
5.62
1.06
-3.77
-8.55
-12.96
-16.83
-20.22
-23.35
-26.59
-30.28
-34.77
-40.25
-46.62
-53.37
-59.45
-63.52
-64.26
-60.85
-53.35
-42.65
-30.20
-17.51
-5.72
4.61
13.34
20.50
26.06
29.88
31.91
32.29
31.51
30.26
29.22
28.79
29.01
29.63
30.32
30.90
31.34
31.75
32.17
32.56
32.67
32.24
31.07
29.07
26.37
23.17
19.75
16.37
13.20
10.30
7.59
4.90
2.00
-1.28
-4.93
-8.81
-12.66
-16.23
-19.40
-22.27
-25.14
-28.45
-32.58
-37.72
-43.74
-50.07
-55.75
-59.64
-60.67
-58.19
-52.20
-43.33
-32.72
-21.60
-10.95
-1.42
6.71
13.30
18.26
21.49
22.99
23.02
22.12
20.96
20.17
20.07
20.68
21.76
23.01
24.21
25.29
26.24
27.08
27.76
28.17
28.22
27.82
26.92
25.45
23.39
20.78
17.73
14.45
11.14
7.87
4.54
0.99
-2.91
-7.14
-11.49
-15.57
-19.06
-21.82
-23.94
-25.73
-27.66
-30.17
-33.55
-37.86
-42.87
-48.03
-52.50
-55.34
-55.71
-53.11
-47.54
-39.46
-29.71
-19.28
-9.09
0.07
7.65
13.27
16.79
18.28
18.13
16.93
15.39
14.15
13.62
13.93
14.96
16.40
17.91
19.23
20.18
20.74
20.91
20.68
20.03
18.84
17.04
14.62
11.70
8.54
5.42
2.57
0.03
-2.33
-4.73
-7.39
-10.34
-13.44
-16.43
-19.05
-21.24
-23.19
-25.34
-28.18
-32.07
-37.04
-42.66
-48.18
-52.58
-54.84
-54.23
-50.47
-43.82
-35.07
-25.26
-15.47
-6.53
1.10
7.25
11.95
15.26
17.27
18.08
17.93
17.18
16.23
15.48
15.14
15.24
15.71
16.39
17.17
17.96
18.69
19.27
19.54
19.31
18.42
16.80
14.47
11.58
8.36
5.04
1.72
-1.55
-4.81
-8.14
-11.52
-14.90
-18.17
-21.23
-24.07
-26.87
-29.94
-33.64
-38.23
-43.72
-49.73
-55.54
-60.15
-62.55
-61.97
-58.05
-51.01
-41.55
-30.69
-19.58
-9.17
-0.14
7.27
13.05
17.36
20.36
22.19
23.01
23.06
22.69
22.25
22.07
22.29
22.89
23.72
24.58
25.35
25.91
26.21
26.17
25.74
24.82
23.38
21.39
18.84
15.75
12.17
8.17
3.87
-0.60
-5.09
-9.52
-13.87
-18.14
-22.36
-26.59
-31.00
-35.79
-41.18
-47.24
-53.75
-60.02
-65.05
-67.69
-67.05
-62.75
-55.03
-44.74
-32.93
-20.72
-9.00
1.55
10.50
17.56
22.61
25.67
26.95
26.89
25.99
24.84
23.91
23.52
23.75
24.51
25.58
26.65
27.52
28.09
28.38
28.50
28.48
28.26
27.58
26.16
23.74
20.24
15.84
10.92
5.93
1.27
-2.85
-6.45
-9.73
-12.94
-16.31
-19.99
-24.13
-28.83
-34.15
-39.93
-45.64
-50.35
-52.92
-52.35
-48.30
-41.16
-31.91
-21.71
-11.50
-1.86
6.83
14.17
19.65
22.80
23.46
22.05
19.51
16.96
15.33
15.02
15.95
17.68
19.70
21.60
23.13
24.17
24.70
24.80
24.46
23.68
22.37
20.42
17.72
14.31
10.31
5.93
1.38
-3.17
-7.59
-11.86
-16.03
-20.29
-24.94
-30.32
-36.63
-43.65
-50.69
-56.52
-59.78
-59.31
-54.58
-45.88
-34.14
-20.73
-7.00
5.91
17.24
26.51
33.44
37.88
39.82
39.50
37.45
34.46
31.42
29.09
27.94
28.02
29.04
30.50
31.90
32.87
33.21
32.85
31.82
30.13
27.82
24.88
21.25
16.89
11.78
6.01
-0.18
-6.41
-12.36
-17.80
-22.78
-27.60
-32.74
-38.68
-45.69
-53.70
-62.21
-70.23
-76.39
-79.23
-77.57
-70.85
-59.46
-44.67
-28.25
-12.04
2.57
14.81
24.52
31.88
37.13
40.51
42.21
42.49
41.79
40.70
39.79
39.47
39.82
40.62
41.48
42.05
42.20
41.99
41.61
41.16
40.54
39.41
37.38
34.15
29.66
24.16
18.05
11.79
5.76
0.17
-4.98
-9.83
-14.62
-19.67
-25.35
-31.92
-39.50
-47.90
-56.48
-64.16
-69.59
-71.41
-68.69
-61.19
-49.47
-34.81
-18.80
-3.06
11.16
23.08
32.42
39.25
43.85
46.58
47.81
47.95
47.40
46.60
45.87
45.45
45.35
45.45
45.57
45.52
45.20
44.55
43.54
42.12
40.24
37.84
34.92
31.50
27.62
23.34
18.69
13.74
8.57
3.26
-2.09
-7.33
-12.35
-17.07
-21.49
-25.77
-30.26
-35.40
-41.59
-48.84
-56.59
-63.63
-68.42
-69.45
-65.82
-57.54
-45.48
-31.07
-15.85
-1.06
12.46
24.23
33.95
41.37
46.33
48.93
49.52
48.78
47.47
46.29
45.64
45.68
46.39
47.68
49.44
51.45
53.30
54.34
53.83
51.10
45.90
38.53
29.79
20.80
12.63
6.06
1.37
-1.60
-3.24
-4.02
-4.35
-4.56
-4.95
-5.84
-7.53
-10.25
-14.02
-18.69
-24.03
-29.85
-36.15
-42.94
-49.99
-56.60
-61.54
-63.39
-61.04
-54.14
-43.33
-30.02
-15.94
-2.60
9.01
18.42
25.52
30.30
32.73
32.91
31.12
27.98
24.34
21.16
19.20
18.85
19.98
22.07
24.37
26.21
27.15
27.08
26.14
24.55
22.51
20.11
17.33
14.10
10.34
6.08
1.43
-3.34
-7.93
-12.05
-15.55
-18.48
-21.08
-23.69
-26.64
-30.23
-34.56
-39.57
-44.88
-49.81
-53.34
-54.33
-51.84
-45.46
-35.60
-23.38
-10.37
1.87
12.21
20.02
25.21
27.94
28.55
27.40
25.00
22.03
19.23
17.29
16.56
17.01
18.25
19.71
20.93
21.64
21.84
21.64
21.16
20.42
19.33
17.76
15.55
12.60
8.88
4.50
-0.30
-5.20
-9.82
-13.90
-17.42
-20.66
-24.07
-28.19
-33.38
-39.71
-46.84
-54.05
-60.30
-64.41
-65.32
-62.35
-55.42
-45.21
-32.90
-19.93
-7.53
3.45
12.63
19.94
25.33
28.77
30.22
29.88
28.23
25.98
23.92
22.63
22.32
22.88
24.00
25.41
26.89
28.31
29.52
30.29
30.39
29.63
27.94
25.37
22.02
17.94
13.13
7.65
1.65
-4.54
-10.56
-16.11
-21.12
-25.74
-30.30
-35.15
-40.54
-46.53
-52.88
-59.06
-64.19
-67.21
-67.12
-63.29
-55.72
-45.12
-32.68
-19.80
-7.67
2.90
11.54
18.19
22.91
25.87
27.33
27.69
27.49
27.28
27.48
28.24
29.39
30.61
31.59
32.27
32.79
33.42
34.29
35.27
35.96
35.85
34.59
32.17
28.99
25.70
23.10
21.86
22.26
24.11
26.65
28.66
28.79
25.95
19.66
10.25
-1.45
-14.41
-27.80
-41.13
-53.99
-65.80
-75.50
-81.79
-83.37
-79.57
-70.59
-57.54
-42.07
-25.94
-10.52
3.40
15.66
26.48
36.22
45.10
53.04
59.62
64.26
66.39
65.72
62.28
56.51
49.16
41.21
33.61
27.17
22.32
19.06
17.11
15.98
15.24
14.50
13.43
11.72
9.05
5.27
0.48
-4.87
-10.18
-14.87
-18.73
-21.92
-24.90
-28.25
-32.34
-37.33
-43.13
-49.50
-56.02
-62.14
-67.14
-70.19
-70.50
-67.54
-61.23
-51.97
-40.56
-28.05
-15.51
-3.81
6.39
14.70
20.97
25.24
27.70
28.65
28.48
27.64
26.55
25.57
24.95
24.83
25.18
25.84
26.61
27.21
27.45
27.22
26.51
25.38
23.84
21.84
19.23
15.92
11.94
7.46
2.75
-1.90
-6.32
-10.43
-14.21
-17.69
-20.90
-24.03
-27.41
-31.42
-36.35
-42.07
-47.92
-52.74
-55.25
-54.41
-49.82
-41.85
-31.47
-19.99
-8.63
1.65
10.35
17.25
22.38
25.82
27.68
28.12
27.42
26.01
24.35
22.94
22.04
21.68
21.69
21.78
21.71
21.37
20.75
19.82
18.54
16.72
14.17
10.79
6.70
2.27
-2.00
-5.62
-8.37
-10.34
-11.94
-13.80
-16.44
-20.07
-24.36
-28.52
-31.48
-32.23
-30.20
-25.42
-18.50
-10.39
-2.11
5.52
12.00
17.10
20.71
22.78
23.30
22.37
20.28
17.51
14.70
12.45
11.15
10.95
11.63
12.80
13.97
14.73
14.73
13.77
11.79
8.93
5.47
1.74
-1.98
-5.52
-8.91
-12.32
-16.00
-20.22
-25.12
-30.56
-36.08
-40.82
-43.74
-43.86
-40.63
-34.13
-25.14
-14.85
-4.54
4.76
12.45
18.30
22.28
24.47
25.02
24.17
22.32
19.95
17.55
15.51
13.98
12.99
12.43
12.20
12.15
12.18
12.09
11.63
10.53
8.61
5.81
2.23
-1.85
-6.15
-10.40
-14.40
-18.10
-21.61
-25.19
-29.15
-33.73
-38.82
-43.90
-47.97
-49.91
-48.75
-44.12
-36.39
-26.57
-16.01
-5.95
2.76
9.74
14.94
18.51
20.64
21.50
21.29
20.31
18.90
17.39
16.06
15.04
14.35
13.92
13.66
13.48
13.32
13.15
12.90
12.42
11.50
9.92
7.55
4.47
0.88
-2.90
-6.60
-10.14
-13.63
-17.37
-21.67
-26.72
-32.46
-38.46
-43.96
-47.93
-49.36
-47.55
-42.34
-34.20
-24.17
-13.52
-3.45
5.19
12.02
17.03
20.41
22.38
23.10
22.70
21.38
19.50
17.53
15.97
15.18
15.28
16.10
17.28
18.39
19.15
19.45
19.38
19.06
18.54
17.76
16.53
14.66
11.99
8.53
4.43
-0.07
-4.71
-9.30
-13.74
-18.00
-22.15
-26.39
-30.93
-35.95
-41.40
-46.92
-51.74
-54.90
-55.42
-52.65
-46.47
-37.39
-26.43
-14.83
-3.83
5.65
13.07
18.36
21.75
23.67
24.56
24.79
24.63
24.28
23.86
23.50
23.30
23.32
23.54
23.85
24.05
23.92
23.28
22.09
20.46
18.64
16.80
15.00
13.05
10.69
7.68
4.00
-0.13
-4.34
-8.25
-11.61
-14.45
-16.97
-19.54
-22.55
-26.29
-30.86
-36.05
-41.31
-45.82
-48.58
-48.75
-45.83
-39.88
-31.50
-21.65
-11.43
-1.80
6.56
13.22
17.98
20.78
21.73
21.08
19.29
16.97
14.75
13.15
12.44
12.59
13.41
14.55
15.71
16.72
17.49
18.02
18.32
18.29
17.75
16.44
14.15
10.80
6.59
1.94
-2.68
-6.85
-10.44
-13.60
-16.70
-20.16
-24.34
-29.34
-34.95
-40.63
-45.51
-48.59
-48.90
-45.86
-39.46
-30.27
-19.38
-7.99
2.78
12.20
19.86
25.65
29.56
31.63
31.96
30.82
28.69
26.25
24.19
22.97
22.75
23.29
24.17
24.93
25.33
25.30
24.91
24.28
23.38
22.10
20.26
17.71
14.41
10.46
6.07
1.43
-3.34
-8.27
-13.58
-19.49
-26.14
-33.51
-41.41
-49.59
-57.76
-65.53
-72.34
-77.32
-79.47
-77.91
-72.26
-62.90
-50.93
-37.84
-25.05
-13.58
-3.82
4.23
10.77
15.89
19.60
21.86
22.80
22.76
22.35
22.19
22.68
23.91
25.61
27.33
28.69
29.49
29.79
29.78
29.59
29.20
28.36
26.69
23.83
19.60
14.06
7.51
0.40
-6.82
-13.79
-20.38
-26.61
-32.67
-38.77
-45.14
-51.86
-58.85
-65.71
-71.66
-75.63
-76.40
-72.97
-64.92
-52.63
-37.23
-20.37
-3.83
10.98
23.15
32.44
39.06
43.44
46.06
47.30
47.48
46.93
46.07
45.33
45.09
45.51
46.48
47.73
48.92
49.76
50.13
49.97
49.27
47.95
45.85
42.79
38.62
33.38
27.27
20.63
13.87
7.33
1.23
-4.35
-9.54
-14.55
-19.72
-25.41
-31.92
-39.42
-47.70
-56.15
-63.71
-69.10
-71.01
-68.60
-61.65
-50.72
-36.99
-21.96
-7.06
6.57
18.23
27.58
34.50
38.99
41.21
41.43
40.17
38.09
35.95
34.42
33.92
34.53
35.96
37.71
39.25
40.20
40.44
40.02
39.11
37.76
35.90
33.33
29.86
25.43
20.20
14.45
8.56
2.82
-2.60
-7.66
-12.48
-17.31
-22.47
-28.26
-34.76
-41.72
-48.44
-53.85
-56.73
-56.10
-51.46
-43.01
-31.53
-18.21
-4.37
8.79
20.23
29.23
35.28
38.19
38.20
35.86
32.09
27.91
24.30
21.99
21.28
22.07
23.84
25.91
27.58
28.43
28.31
27.35
25.76
23.65
20.92
17.35
12.82
7.38
1.41
-4.62
-10.29
-15.44
-20.22
-25.04
-30.37
-36.55
-43.66
-51.34
-58.84
-65.01
-68.52
-68.19
-63.35
-54.07
-41.23
-26.33
-11.05
3.13
15.21
24.71
31.54
35.85
37.88
38.00
36.71
34.67
32.61
31.15
30.63
31.04
32.05
33.23
34.17
34.65
34.64
34.18
33.20
31.54
28.92
25.12
20.11
14.10
7.48
0.78
-5.58
-11.32
-16.41
-21.01
-25.49
-30.31
-35.98
-42.87
-51.02
-59.93
-68.52
-75.28
-78.62
-77.33
-70.97
-60.06
-45.89
-30.19
-14.63
-0.48
11.56
21.29
28.80
34.27
37.86
39.78
40.30
39.85
39.00
38.30
38.14
38.57
39.38
40.18
40.64
40.62
40.15
39.38
38.38
37.07
35.22
32.54
28.83
24.06
18.43
12.29
6.05
0.05
-5.57
-10.84
-15.97
-21.27
-27.04
-33.51
-40.75
-48.61
-56.60
-63.85
-69.28
-71.74
-70.35
-64.78
-55.35
-42.98
-28.85
-14.23
-0.15
12.59
23.51
32.29
38.76
42.97
45.09
45.54
44.88
43.74
42.68
42.06
42.02
42.46
43.12
43.76
44.15
44.16
43.68
42.67
41.04
38.78
35.88
32.39
28.45
24.17
19.65
14.95
10.07
5.01
-0.17
-5.30
-10.24
-14.85
-19.15
-23.31
-27.73
-32.80
-38.85
-45.87
-53.38
-60.46
-65.84
-68.18
-66.47
-60.28
-49.98
-36.62
-21.66
-6.69
6.93
18.24
26.71
32.22
34.99
35.48
34.32
32.24
29.92
27.95
26.72
26.43
27.05
28.36
30.02
31.62
32.83
33.49
33.57
33.16
32.37
31.17
29.44
26.97
23.62
19.42
14.55
9.36
4.16
-0.82
-5.52
-9.98
-14.31
-18.64
-23.14
-27.97
-33.31
-39.24
-45.62
-51.93
-57.29
-60.59
-60.78
-57.23
-49.91
-39.46
-26.99
-13.82
-1.15
10.09
19.32
26.21
30.68
32.81
32.87
31.39
29.03
26.54
24.58
23.58
23.66
24.67
26.27
28.06
29.66
30.77
31.27
31.12
30.38
29.11
27.36
25.08
22.22
18.68
14.44
9.54
4.14
-1.55
-7.32
-13.03
-18.62
-24.13
-29.65
-35.34
-41.39
-47.98
-55.21
-62.84
-70.28
-76.47
-80.13
-80.06
-75.59
-66.81
-54.59
-40.33
-25.57
-11.61
0.69
10.87
18.79
24.48
28.09
29.89
30.34
29.97
29.37
29.00
29.11
29.76
30.81
32.07
33.30
34.28
34.82
34.78
34.13
32.91
31.23
29.16
26.72
23.78
20.26
16.13
11.52
6.67
1.83
-2.83
-7.28
-11.53
-15.62
-19.57
-23.45
-27.43
-31.83
-37.04
-43.28
-50.36
-57.55
-63.67
-67.33
-67.40
-63.27
-55.10
-43.76
-30.56
-16.95
-4.21
6.79
15.67
22.40
27.19
30.34
32.12
32.79
32.63
32.01
31.40
31.17
31.53
32.44
33.65
34.85
35.86
36.59
37.09
37.32
37.15
36.35
34.71
32.19
28.93
25.25
21.47
17.76
14.06
10.16
5.85
1.03
-4.11
-9.25
-14.03
-18.27
-22.11
-25.97
-30.39
-35.82
-42.39
-49.88
-57.59
-64.51
-69.45
-71.28
-69.21
-63.06
-53.28
-40.96
-27.52
-14.33
-2.50
7.33
14.92
20.28
23.61
25.21
25.45
24.77
23.68
22.70
22.29
22.72
24.00
25.93
28.09
29.99
31.26
31.72
31.39
30.45
29.06
27.27
25.01
22.12
18.48
14.14
9.33
4.41
-0.23
-4.32
-7.72
-10.55
-13.04
-15.51
-18.25
-21.51
-25.41
-29.96
-34.98
-40.05
-44.45
-47.29
-47.66
-44.92
-38.94
-30.20
-19.71
-8.70
1.66
10.53
17.40
22.09
24.57
24.93
23.46
20.72
17.52
14.75
13.13
13.02
14.25
16.31
18.53
20.33
21.39
21.69
21.36
20.61
19.56
18.18
16.30
13.68
10.17
5.82
0.91
-4.11
-8.82
-12.97
-16.57
-19.87
-23.26
-27.12
-31.72
-37.12
-43.19
-49.44
-55.09
-59.14
-60.51
-58.39
-52.53
-43.40
-32.13
-20.19
-8.93
0.69
8.28
13.91
17.81
20.22
21.28
21.11
19.99
18.38
16.87
15.97
15.96
16.77
18.10
19.58
20.87
21.81
22.37
22.58
22.40
21.71
20.35
18.17
15.11
11.27
6.83
2.06
-2.80
-7.56
-12.14
-16.56
-20.92
-25.40
-30.22
-35.58
-41.62
-48.27
-55.14
-61.42
-66.04
-67.91
-66.25
-60.91
-52.35
-41.58
-29.78
-18.01
-7.00
2.81
11.15
17.87
22.84
26.01
27.58
27.91
27.54
26.96
26.64
26.79
27.48
28.58
29.90
31.17
32.15
32.64
32.54
31.85
30.66
29.12
27.32
25.22
22.69
19.55
15.69
11.14
6.17
1.08
-3.84
-8.49
-12.95
-17.48
-22.32
-27.68
-33.64
-40.16
-47.03
-53.81
-59.77
-63.96
-65.38
-63.23
-57.25
-47.83
-35.91
-22.83
-9.92
1.77
11.56
19.23
24.85
28.64
30.91
31.94
32.06
31.63
31.04
30.61
30.57
31.03
31.94
33.20
34.65
36.11
37.42
38.37
38.73
38.23
36.70
34.12
30.62
26.45
21.91
17.25
12.57
7.96
3.41
-1.08
-5.50
-9.85
-14.14
-18.37
-22.50
-26.56
-30.64
-34.96
-39.88
-45.66
-52.22
-58.89
-64.51
-67.66
-67.12
-62.35
-53.65
-42.08
-29.03
-15.90
-3.77
6.71
15.20
21.61
25.98
28.50
29.55
29.66
29.39
29.22
29.41
30.02
30.94
32.00
33.06
34.07
34.99
35.82
36.50
36.91
36.86
36.11
34.51
32.01
28.75
25.02
21.13
17.34
13.68
10.03
6.19
2.10
-2.14
-6.25
-9.90
-12.90
-15.33
-17.51
-19.99
-23.34
-27.93
-33.82
-40.58
-47.38
-53.08
-56.50
-56.68
-53.20
-46.24
-36.58
-25.36
-13.78
-2.85
6.73
14.62
20.68
24.91
27.37
28.22
27.79
26.58
25.19
24.21
24.01
24.69
26.07
27.79
29.46
30.74
31.44
31.46
30.77
29.37
27.28
24.54
21.29
17.68
13.88
10.03
6.19
2.35
-1.47
-5.29
-9.05
-12.70
-16.17
-19.43
-22.52
-25.63
-29.09
-33.28
-38.46
-44.56
-50.98
-56.67
-60.33
-60.76
-57.33
-50.17
-40.12
-28.42
-16.35
-4.93
5.21
13.72
20.44
25.25
28.14
29.30
29.08
28.05
26.80
25.82
25.37
25.53
26.20
27.18
28.24
29.18
29.84
30.11
29.91
29.21
27.95
26.13
23.73
20.83
17.53
13.94
10.12
6.07
1.77
-2.74
-7.33
-11.76
-15.85
-19.48
-22.77
-26.03
-29.69
-34.15
-39.67
-46.23
-53.40
-60.34
-65.88
-68.75
-67.95
-63.03
-54.30
-42.75
-29.79
-16.85
-5.08
4.86
12.69
18.45
22.34
24.64
25.72
25.96
25.77
25.50
25.42
25.67
26.34
27.42
28.87
30.58
32.38
34.04
35.35
36.13
36.25
35.64
34.26
32.10
29.22
25.71
21.72
17.39
12.84
8.09
3.17
-1.86
-6.87
-11.68
-16.11
-20.14
-23.90
-27.80
-32.30
-37.82
-44.42
-51.64
-58.46
-63.48
-65.31
-63.07
-56.64
-46.78
-34.82
-22.25
-10.37
-0.01
8.46
14.94
19.54
22.42
23.89
24.38
24.42
24.52
25.08
26.20
27.84
29.77
31.76
33.62
35.20
36.35
36.96
36.89
36.06
34.51
32.32
29.60
26.47
22.97
19.20
15.21
11.11
7.02
3.03
-0.77
-4.35
-7.74
-11.03
-14.32
-17.80
-21.64
-26.03
-31.11
-36.81
-42.74
-48.14
-51.90
-52.85
-50.10
-43.44
-33.39
-21.12
-8.07
4.48
15.66
25.04
32.47
37.89
41.23
42.45
41.70
39.36
36.13
32.81
30.18
28.75
28.64
29.68
31.41
33.29
34.92
36.07
36.75
37.11
37.32
37.41
37.20
36.33
34.41
31.18
26.66
21.13
15.01
8.67
2.31
-4.13
-10.91
-18.44
-27.13
-37.18
-48.44
-60.27
-71.55
-80.85
-86.77
-88.36
-85.41
-78.57
-69.13
-58.60
-48.34
-39.20
-31.45
-24.80
-18.76
-12.94
-7.23
-1.91
2.54
5.76
7.59
8.19
7.89
6.88
5.20
2.78
-0.42
-4.18
-8.03
-11.43
-14.08
-16.02
-17.74
-19.86
-22.88
-26.90
-31.55
-36.20
-40.23
-43.35
-45.73
-47.91
-50.52
-54.09
-58.65
-63.84
-68.88
-72.83
-74.80
-74.06
-70.19
-63.07
-52.94
-40.36
-26.20
-11.57
2.39
14.71
24.73
32.18
37.21
40.26
41.94
42.93
43.94
45.55
48.23
52.21
57.44
63.69
70.41
77.00
82.78
87.14
89.66
90.13
88.63
85.44
80.89
75.26
68.68
61.21
53.00
44.32
35.64
27.41
19.86
12.87
6.01
-1.27
-9.35
-18.32
-27.91
-37.62
-46.77
-54.56
-60.10
-62.50
-61.06
-55.50
-46.15
-33.92
-20.13
-6.15
6.85
18.06
27.05
33.63
37.76
39.62
39.57
38.20
36.22
34.28
32.86
32.14
32.03
32.37
32.92
33.54
34.09
34.46
34.42
33.76
32.32
30.08
27.21
23.95
20.56
17.15
13.68
10.00
5.96
1.47
-3.40
-8.46
-13.48
-18.30
-22.89
-27.40
-32.07
-37.17
-42.81
-48.93
-55.07
-60.53
-64.30
-65.38
-62.98
-56.76
-47.00
-34.52
-20.59
-6.55
6.43
17.46
26.05
32.02
35.47
36.70
36.19
34.58
32.56
30.70
29.43
28.91
29.05
29.57
30.11
30.36
30.09
29.23
27.85
26.11
24.19
22.23
20.31
18.38
16.32
14.01
11.34
8.31
4.93
1.35
-2.32
-5.98
-9.62
-13.34
-17.30
-21.68
-26.60
-32.09
-38.06
-44.28
-50.30
-55.41
-58.71
-59.24
-56.28
-49.64
-39.75
-27.62
-14.60
-1.97
9.21
18.34
25.11
29.39
31.28
31.01
29.05
26.11
23.01
20.48
18.95
18.52
18.94
19.84
20.85
21.77
22.52
23.08
23.41
23.40
22.94
21.94
20.41
18.35
15.75
12.63
8.94
4.72
0.12
-4.60
-9.16
-13.40
-17.38
-21.39
-25.84
-31.02
-36.98
-43.34
-49.37
-54.07
-56.47
-55.82
-51.77
-44.49
-34.59
-23.06
-11.00
0.54
10.70
18.87
24.73
28.17
29.28
28.35
25.87
22.51
18.99
15.90
13.63
12.32
11.87
12.07
12.72
13.61
14.57
15.40
15.87
15.77
14.90
13.16
10.52
7.11
3.19
-0.95
-5.00
-8.73
-12.10
-15.28
-18.63
-22.50
-27.13
-32.40
-37.85
-42.69
-46.00
-46.91
-44.88
-39.81
-32.08
-22.45
-11.88
-1.37
8.20
16.13
21.95
25.40
26.52
25.57
23.05
19.66
16.09
12.92
10.53
9.01
8.28
8.15
8.40
8.83
9.26
9.54
9.50
9.04
8.08
6.52
4.32
1.46
-2.00
-5.92
-10.10
-14.40
-18.74
-23.26
-28.22
-33.84
-40.10
-46.57
-52.41
-56.54
-57.94
-55.92
-50.37
-41.74
-30.96
-19.19
-7.59
2.84
11.41
17.76
21.81
23.77
23.97
22.89
21.02
18.86
16.85
15.30
14.37
14.05
14.15
14.40
14.51
14.20
13.28
11.70
9.49
6.81
3.86
0.79
-2.30
-5.47
-8.84
-12.59
-16.84
-21.66
-27.10
-33.15
-39.70
-46.43
-52.68
-57.50
-59.79
-58.66
-53.72
-45.25
-34.17
-21.73
-9.20
2.42
12.50
20.67
26.75
30.67
32.49
32.45
31.02
28.85
26.61
24.81
23.66
23.10
22.86
22.73
22.55
22.27
21.87
21.23
20.15
18.40
15.85
12.52
8.59
4.31
-0.12
-4.60
-9.17
-13.87
-18.82
-24.16
-30.00
-36.45
-43.39
-50.36
-56.46
-60.49
-61.26
-58.00
-50.66
-39.97
-27.22
-13.83
-1.06
10.30
19.81
27.31
32.74
36.09
37.54
37.41
36.28
34.84
33.73
33.29
33.58
34.38
35.33
36.05
36.30
35.98
35.13
33.89
32.37
30.62
28.56
25.96
22.63
18.41
13.39
7.87
2.30
-2.97
-7.74
-12.14
-16.51
-21.38
-27.14
-33.94
-41.50
-49.00
-55.29
-59.11
-59.43
-55.83
-48.53
-38.40
-26.62
-14.43
-2.86
7.41
15.99
22.75
27.65
30.75
32.20
32.23
31.26
29.85
28.61
28.04
28.42
29.58
31.08
32.37
33.05
32.99
32.41
31.59
30.70
29.69
28.33
26.25
23.25
19.27
14.57
9.50
4.49
-0.17
-4.37
-8.14
-11.67
-15.17
-18.89
-23.02
-27.70
-32.96
-38.60
-44.03
-48.37
-50.48
-49.39
-44.61
-36.38
-25.60
-13.61
-1.73
9.00
17.90
24.63
29.10
31.39
31.79
30.78
29.06
27.32
26.14
25.81
26.35
27.56
29.16
30.88
32.45
33.65
34.25
34.03
32.87
30.74
27.81
24.29
20.48
16.62
12.84
9.17
5.54
1.82
-2.09
-6.19
-10.39
-14.49
-18.32
-21.78
-24.99
-28.21
-31.82
-36.20
-41.57
-47.90
-54.80
-61.48
-66.83
-69.58
-68.70
-63.70
-54.93
-43.43
-30.67
-18.09
-6.70
3.05
11.10
17.61
22.65
26.30
28.68
30.03
30.75
31.28
31.91
32.77
33.77
34.77
35.64
36.37
37.02
37.59
38.00
37.98
37.30
35.69
33.15
29.87
26.21
22.56
19.17
16.10
13.23
10.37
7.37
4.21
0.93
-2.43
-5.85
-9.37
-13.02
-16.87
-20.93
-25.32
-30.21
-35.83
-42.31
-49.37
-56.23
-61.66
-64.26
-63.00
-57.56
-48.50
-37.07
-24.74
-12.80
-2.04
7.20
14.88
21.03
25.67
28.81
30.57
31.24
31.21
30.92
30.75
30.94
31.60
32.66
33.92
35.13
36.10
36.76
37.14
37.36
37.45
37.29
36.67
35.30
33.08
30.11
26.72
23.30
20.16
17.36
14.75
12.07
9.09
5.77
2.18
-1.51
-5.12
-8.56
-11.75
-14.68
-17.37
-19.98
-22.82
-26.27
-30.67
-36.09
-42.13
-47.97
-52.47
-54.53
-53.41
-48.89
-41.39
-31.77
-21.13
-10.56
-0.96
7.05
13.14
17.16
19.22
19.60
18.74
17.21
15.62
14.57
14.42
15.25
16.87
18.88
20.86
22.48
23.65
24.40
24.81
24.88
24.50
23.44
21.55
18.86
15.58
12.06
8.64
5.47
2.52
-0.44
-3.64
-7.19
-10.96
-14.60
-17.70
-20.00
-21.51
-22.54
-23.64
-25.31
-27.90
-31.47
-35.75
-40.23
-44.17
-46.77
-47.23
-44.99
-39.86
-32.18
-22.74
-12.64
-2.98
5.42
12.09
16.90
19.99
21.55
21.88
21.24
20.02
18.67
17.67
17.39
17.99
19.37
21.22
23.13
24.77
25.95
26.63
26.84
26.57
25.79
24.39
22.26
19.42
16.04
12.38
8.78
5.45
2.43
-0.47
-3.53
-7.02
-11.01
-15.32
-19.55
-23.27
-26.26
-28.62
-30.78
-33.34
-36.81
-41.40
-46.90
-52.72
-57.97
-61.68
-63.00
-61.31
-56.42
-48.64
-38.70
-27.65
-16.56
-6.40
2.21
8.98
13.89
17.11
18.90
19.63
19.67
19.44
19.28
19.34
19.62
19.96
20.22
20.38
20.55
20.90
21.56
22.49
23.50
24.31
24.68
24.47
23.69
22.39
20.67
18.60
16.20
13.48
10.44
7.12
3.56
-0.13
-3.83
-7.40
-10.77
-13.91
-16.89
-19.84
-22.96
-26.50
-30.73
-35.82
-41.69
-47.89
-53.60
-57.70
-59.12
-57.18
-51.78
-43.53
-33.51
-22.89
-12.70
-3.58
4.17
10.43
15.18
18.35
19.98
20.30
19.77
18.93
18.31
18.18
18.59
19.33
20.18
20.99
21.69
22.31
22.83
23.25
23.53
23.58
23.33
22.65
21.45
19.70
17.43
14.79
11.95
9.07
6.23
3.44
0.59
-2.39
-5.55
-8.84
-12.15
-15.38
-18.46
-21.45
-24.52
-27.98
-32.09
-37.03
-42.68
-48.59
-53.97
-57.80
-59.08
-57.15
-51.86
-43.67
-33.61
-22.82
-12.46
-3.31
4.23
10.12
14.45
17.41
19.16
19.83
19.65
18.94
18.11
17.59
17.68
18.45
19.74
21.27
22.74
23.97
24.93
25.65
26.14
26.33
26.07
25.21
23.70
21.56
18.90
15.86
12.52
8.97
5.22
1.35
-2.60
-6.56
-10.50
-14.44
-18.46
-22.66
-27.16
-31.93
-36.80
-41.40
-45.24
-47.77
-48.49
-47.04
-43.32
-37.44
-29.72
-20.72
-11.06
-1.43
7.53
15.32
21.56
26.05
28.73
29.74
29.41
28.25
26.83
25.68
25.21
25.51
26.48
27.81
29.19
30.33
31.01
31.16
30.75
29.75
28.14
25.88
22.96
19.43
15.32
10.74
5.76
0.51
-4.82
-9.98
-14.75
-19.02
-22.84
-26.50
-30.45
-35.04
-40.38
-46.15
-51.61
-55.67
-57.32
-55.81
-50.92
-42.99
-32.79
-21.33
-9.56
1.74
12.04
20.88
27.98
33.08
36.17
37.52
37.75
37.68
38.04
39.21
41.07
43.11
44.70
45.44
45.37
45.04
45.29
46.89
50.24
55.20
61.15
67.24
72.65
76.90
79.92
81.96
83.28
83.93
83.47
81.05
75.52
65.94
52.01
34.23
13.81
-7.72
-29.04
-49.34
-68.17
-84.97
-98.56
-107.07
-108.40
-101.03
-84.81
-61.27
-33.45
-5.42
18.33
33.63
37.67
29.98
13.11
-7.81
-26.74
-39.19
-44.16
-44.61
-46.01
-53.61
-69.61
-91.83
-114.28
-129.26
-130.22
-114.12
-82.71
-42.36
-2.25
28.35
43.03
40.32
24.13
1.96
-17.89
-29.38
-30.38
-22.48
-9.41
4.97
17.93
28.00
34.22
35.49
30.40
18.04
-1.05
-24.29
-47.47
-66.12
-77.04
-79.55
-75.45
-68.16
-61.25
-57.20
-56.77
-59.13
-62.60
-65.48
-66.72
-66.25
-64.80
-63.64
-64.24
-68.13
-76.75
-91.23
-112.10
-138.82
-169.41
-200.62
-228.43
-249.14
-260.34
-261.44
-253.54
-238.55
-218.24
-193.67
-165.05
-132.21
-95.02
-53.66
-8.64
39.13
88.39
137.41
183.97
225.62
259.95
285.23
300.94
307.93
308.36
305.05
300.65
296.85
293.92
290.83
285.90
277.68
265.46
249.46
230.39
208.98
185.70
160.98
135.56
110.57
87.43
67.30
50.85
38.07
28.60
22.02
18.12
16.75
17.63
20.11
23.24
26.07
28.05
29.24
30.36
32.34
35.93
41.33
48.08
55.51
63.17
71.15
79.86
89.56
99.87
109.63
117.32
121.61
121.91
118.48
112.25
104.49
96.52
89.65
85.17
84.19
87.00
92.64
98.71
102.00
99.70
90.72
76.33
59.62
44.28
32.75
25.23
19.59
12.35
-0.08
-20.02
-47.48
-79.77
-111.53
-136.02
-147.35
-143.24
-126.75
-105.66
-89.42
-84.72
-92.28
-106.35
-117.72
-118.31
-105.02
-80.94
-53.49
-30.98
-19.28
-20.25
-32.07
-50.61
-71.30
-90.82
-108.18
-124.96
-144.98
-173.23
-214.10
-269.55
-337.74
-412.69
-485.45
-546.50
-588.42
-607.99
-606.70
-589.61
-563.28
-533.70
-505.11
-479.93
-459.29
-443.45
-431.87
-422.87
-413.61
-400.68
-381.28
-354.33
-320.82
-283.21
-244.43
-206.52
-169.94
-133.78
-96.52
-57.03
-15.35
27.30
69.01
108.06
143.65
176.16
206.89
237.20
267.94
298.90
328.95
356.61
380.66
400.82
418.00
434.04
451.12
470.66
492.48
514.33
532.31
542.06
540.33
526.10
500.96
468.41
432.68
397.41
364.73
334.94
306.81
278.27
247.32
213.00
175.92
138.27
103.03
72.59
47.54
26.25
5.55
-17.77
-45.44
-76.92
-109.86
-141.00
-167.17
-185.84
-195.22
-194.26
-182.83
-162.11
-134.75
-104.54
-75.47
-50.39
-30.10
-13.13
3.56
23.34
48.68
80.39
117.35
156.61
193.80
223.77
241.67
244.17
230.66
203.58
168.03
130.25
96.07
69.53
52.39
44.54
44.59
50.58
60.19
70.92
80.15
85.52
85.45
79.53
68.58
54.34
38.93
24.20
11.31
0.54
-8.57
-16.85
-24.99
-33.13
-40.85
-47.44
-52.35
-55.62
-57.84
-59.93
-62.55
-65.80
-69.19
-71.99
-73.61
-73.82
-72.73
-70.39
-66.69
-61.33
-54.20
-45.64
-36.61
-28.37
-22.03
-18.03
-16.05
-15.33
-15.10
-14.99
-15.03
-15.44
-16.21
-16.97
-17.17
-16.33
-14.45
-11.98
-9.62
-8.02
-7.50
-7.99
-9.23
-10.88
-12.77
-14.79
-16.92
-19.10
-21.22
-23.14
-24.72
-25.90
-26.73
-27.35
-27.89
-28.38
-28.74
-28.75
-28.27
-27.33
-26.24
-25.45
-25.31
-25.80
-26.48
-26.69
-25.74
-23.24
-19.25
-14.13
-8.48
-2.91
2.10
6.14
9.01
10.68
11.40
11.59
11.64
11.79
11.93
11.55
9.97
6.60
1.22
-5.76
-13.31
-19.98
-24.26
-24.99
-21.78
-15.34
-7.36
-0.27
3.54
2.46
-3.71
-13.62
-24.87
-34.86
-41.68
-44.59
-44.09
-41.55
-38.65
-37.16
-38.66
-44.34
-54.55
-68.22
-82.77
-94.46
-99.56
-95.63
-82.52
-62.42
-39.02
-16.24
2.93
17.03
25.97
30.57
31.94
31.00
28.38
24.36
19.09
12.84
6.15
-0.22
-5.56
-9.55
-12.50
-15.21
-18.63
-23.36
-29.40
-36.29
-43.38
-50.26
-56.85
-63.24
-69.47
-75.24
-79.86
-82.41
-81.96
-77.93
-70.39
-60.09
-48.36
-36.80
-26.88
-19.69
-15.83
-15.48
-18.49
-24.46
-32.60
-41.66
-49.92
-55.56
-56.98
-53.33
-44.66
-31.90
-16.54
-0.27
15.41
29.33
40.69
49.14
54.58
57.19
57.34
55.61
52.73
49.49
46.62
44.60
43.62
43.50
43.78
43.95
43.57
42.46
40.71
38.63
36.58
34.85
33.56
32.59
31.65
30.34
28.24
25.08
20.77
15.50
9.65
3.70
-1.95
-7.08
-11.71
-16.03
-20.33
-24.87
-29.70
-34.62
-39.03
-42.00
-42.49
-39.61
-33.02
-23.10
-10.92
2.03
14.37
25.13
33.99
41.11
46.89
51.67
55.58
58.58
60.54
61.35
61.02
59.65
57.50
54.97
52.53
50.61
49.39
48.61
47.68
45.94
43.03
39.18
35.14
31.74
29.35
27.60
25.44
21.63
15.31
6.44
-4.21
-15.25
-25.18
-32.78
-37.44
-39.19
-38.78
-37.51
-36.91
-38.34
-42.48
-48.98
-56.46
-62.95
-66.66
-66.73
-63.62
-58.90
-54.54
-51.99
-51.41
-51.62
-50.59
-46.35
-37.99
-26.04
-12.39
0.44
10.08
14.84
14.05
8.02
-2.04
-14.22
-26.03
-35.01
-39.30
-38.37
-33.22
-26.09
-19.57
-15.60
-14.81
-16.61
-19.75
-23.08
-26.05
-28.70
-31.40
-34.43
-37.85
-41.52
-45.26
-48.97
-52.55
-55.90
-58.84
-61.25
-63.10
-64.59
-66.01
-67.56
-69.08
-69.89
-68.88
-64.71
-56.22
-42.78
-24.52
-2.44
21.72
45.82
67.78
85.98
99.63
108.72
113.85
115.88
115.71
114.18
112.19
110.76
111.00
113.72
119.05
126.19
133.42
138.70
140.32
137.57
130.95
121.84
112.06
103.34
97.10
94.29
95.26
99.45
105.03
108.89
107.25
96.71
75.45
43.93
4.74
-38.28
-81.06
-120.07
-152.56
-176.63
-191.25
-196.49
-193.63
-185.01
-173.35
-160.87
-148.88
-137.76
-127.59
-118.76
-112.09
-108.56
-108.64
-111.98
-117.38
-123.20
-127.75
-129.61
-127.76
-121.83
-112.42
-101.31
-91.08
-84.05
-80.95
-80.00
-77.36
-68.65
-51.02
-24.59
7.58
40.84
70.89
95.19
113.30
126.24
135.53
142.44
147.91
152.71
157.55
162.92
168.76
174.35
178.54
180.22
178.93
175.05
169.68
164.19
159.73
156.83
155.31
154.41
153.07
150.23
145.06
137.13
126.55
113.91
100.15
86.32
73.31
61.61
51.37
42.42
34.46
27.23
20.58
14.47
8.89
3.77
-1.15
-6.29
-12.16
-19.22
-27.59
-37.03
-46.93
-56.57
-65.26
-72.54
-78.18
-82.09
-84.31
-84.93
-84.23
-82.69
-80.93
-79.39
-78.25
-77.25
-75.92
-73.91
-71.15
-67.87
-64.46
-61.12
-57.82
-54.32
-50.37
-45.88
-40.93
-35.77
-30.70
-26.03
-22.07
-19.06
-17.10
-16.04
-15.46
-14.83
-13.82
-12.44
-11.16
-10.75
-11.97
-15.29
-20.75
-27.91
-35.91
-43.72
-50.36
-55.18
-58.11
-59.69
-60.95
-63.14
-67.33
-74.17
-83.62
-94.86
-106.42
-116.50
-123.45
-126.40
-125.57
-122.25
-118.29
-115.35
-114.27
-114.71
-115.27
-113.76
-107.50
-93.60
-69.58
-34.38
10.61
61.00
110.03
150.47
176.84
187.34
183.98
171.42
154.85
138.29
123.85
112.17
103.19
96.76
92.63
90.21
88.45
86.25
82.97
78.88
75.01
72.67
72.80
75.52
80.09
85.26
89.72
92.60
93.72
93.65
93.42
94.07
96.21
99.71
103.84
107.76
111.06
114.14
118.07
124.03
132.88
144.90
160.01
177.96
198.08
218.81
237.24
249.22
250.58
238.68
213.70
178.90
139.27
99.35
61.24
23.91
-15.76
-60.69
-111.37
-164.78
-215.03
-255.51
-281.26
-290.97
-287.32
-275.71
-261.96
-250.51
-243.92
-243.43
-249.69
-262.67
-280.65
-299.33
-312.83
-316.26
-308.94
-295.76
-285.41
-285.55
-298.12
-317.53
-333.24
-335.49
-320.78
-294.15
-266.63
-249.53
-248.91
-262.87
-282.93
-298.19
-300.13
-285.81
-257.90
-222.49
-185.86
-151.91
-121.32
-92.68
-64.38
-36.08
-9.06
14.77
34.19
49.85
63.91
79.18
97.85
120.73
147.06
175.65
206.04
239.04
275.72
315.43
354.03
383.95
396.60
386.22
353.07
304.07
250.39
203.16
169.80
152.46
149.21
156.47
171.33
192.34
219.12
251.26
287.56
325.89
363.47
397.35
424.74
443.53
452.24
450.00
436.33
411.14
375.17
330.55
281.18
232.36
189.35
155.60
131.39
113.69
97.34
77.07
49.39
13.68
-27.86
-71.16
-111.70
-145.88
-171.98
-190.28
-202.65
-211.51
-218.84
-225.52
-231.32
-235.36
-236.65
-234.52
-228.55
-218.41
-203.76
-184.39
-160.58
-133.35
-104.51
-76.19
-50.46
-28.85
-12.19
-0.60
6.20
8.79
8.07
5.34
2.21
0.25
0.54
3.27
7.77
12.71
16.74
19.06
19.91
20.50
22.42
26.82
33.46
40.58
44.90
42.64
31.11
9.97
-18.15
-48.51
-75.89
-96.19
-107.12
-109.14
-105.16
-99.34
-94.96
-92.88
-90.91
-84.61
-69.53
-42.42
-5.30
34.02
64.54
76.76
66.58
36.29
-7.14
-55.13
-98.01
-129.15
-145.85
-148.04
-136.48
-112.11
-76.45
-31.99
18.33
74.46
135.58
197.86
254.80
299.72
328.25
339.84
337.54
308.92
251.32
173.79
92.00
18.44
-42.39
-90.88
-128.26
-155.55
-174.42
-185.06
-190.52
-196.73
-210.17
-235.16
-271.79
-315.85
-360.39
-398.07
-421.62
-422.32
-400.22
-362.14
-317.79
-275.36
-239.07
-208.90
-182.22
-154.60
-123.30
-88.94
-53.30
-17.49
18.71
55.46
91.19
122.18
144.65
156.05
156.23
148.45
138.03
129.94
126.43
126.45
126.91
125.20
120.58
113.88
106.85
100.85
96.12
91.90
87.38
82.39
77.62
74.14
72.50
72.56
73.59
74.94
76.57
79.15
83.74
91.02
100.79
111.72
121.86
129.33
132.85
131.96
126.84
118.05
106.18
91.79
75.47
57.87
39.77
22.00
5.20
-10.31
-24.61
-37.97
-50.59
-62.23
-72.07
-78.87
-81.32
-78.64
-70.87
-58.95
-44.41
-28.94
-13.99
-0.56
10.68
19.30
25.05
27.86
27.96
25.93
22.64
19.05
16.01
14.01
13.16
13.18
13.54
13.72
13.29
12.06
10.12
7.69
5.08
2.45
-0.19
-3.06
-6.57
-11.15
-17.12
-24.57
-33.19
-42.20
-50.45
-56.62
-59.46
-58.11
-52.31
-42.47
-29.63
-15.22
-0.72
12.54
23.62
32.04
37.74
40.93
41.98
41.29
39.26
36.33
33.04
29.90
27.36
25.56
24.32
23.16
21.61
19.34
16.38
13.05
9.70
6.55
3.50
0.15
-4.01
-9.44
-16.37
-24.74
-34.09
-43.61
-52.15
-58.37
-61.04
-59.35
-53.18
-43.17
-30.55
-16.80
-3.28
8.96
19.23
27.12
32.36
34.85
34.77
32.63
29.30
25.78
22.93
21.22
20.59
20.55
20.50
19.91
18.58
16.55
14.06
11.24
8.14
4.58
0.30
-4.91
-11.19
-18.52
-26.72
-35.43
-43.97
-51.40
-56.52
-58.14
-55.45
-48.33
-37.45
-24.09
-9.80
3.97
16.16
26.09
33.35
37.74
39.25
38.11
34.85
30.24
25.21
20.65
17.26
15.40
15.07
15.92
17.30
18.42
18.61
17.44
14.92
11.39
7.33
3.21
-0.80
-4.78
-9.07
-14.11
-20.28
-27.74
-36.28
-45.26
-53.59
-59.85
-62.58
-60.71
-53.87
-42.60
-28.26
-12.67
2.32
15.26
25.32
32.28
36.34
37.99
37.80
36.37
34.30
32.07
30.11
28.64
27.75
27.43
27.56
27.96
28.34
28.33
27.54
25.66
22.53
18.24
12.96
6.98
0.56
-6.01
-12.40
-18.28
-23.46
-28.01
-32.32
-37.02
-42.62
-49.22
-56.25
-62.43
-66.23
-66.23
-61.66
-52.65
-40.15
-25.71
-10.96
2.70
14.28
23.28
29.53
33.11
34.28
33.41
31.09
28.04
25.02
22.70
21.47
21.32
21.93
22.79
23.41
23.56
23.20
22.43
21.32
19.74
17.43
14.14
9.86
4.87
-0.33
-5.21
-9.51
-13.27
-16.80
-20.56
-24.91
-30.09
-36.07
-42.56
-48.96
-54.32
-57.55
-57.55
-53.66
-45.88
-34.99
-22.35
-9.47
2.34
12.19
19.70
24.83
27.69
28.54
27.74
25.82
23.41
21.16
19.58
18.88
18.96
19.49
20.08
20.39
20.25
19.61
18.52
17.02
15.09
12.63
9.51
5.65
1.13
-3.76
-8.60
-12.98
-16.63
-19.56
-22.01
-24.40
-27.24
-30.94
-35.73
-41.48
-47.63
-53.26
-57.22
-58.42
-56.11
-50.17
-41.09
-29.85
-17.67
-5.75
4.95
13.74
20.28
24.46
26.46
26.65
25.58
23.90
22.24
21.11
20.79
21.25
22.22
23.25
23.89
23.84
23.03
21.60
19.82
17.91
15.95
13.83
11.33
8.26
4.55
0.34
-4.13
-8.51
-12.58
-16.25
-19.56
-22.72
-25.97
-29.59
-33.86
-38.95
-44.86
-51.21
-57.23
-61.78
-63.66
-61.94
-56.33
-47.21
-35.65
-23.02
-10.64
0.45
9.66
16.75
21.78
24.93
26.47
26.74
26.13
25.09
24.01
23.24
22.97
23.23
23.85
24.58
25.11
25.23
24.84
24.02
22.92
21.70
20.36
18.80
16.76
14.00
10.36
5.93
0.92
-4.28
-9.31
-13.94
-18.06
-21.74
-25.12
-28.45
-31.97
-35.94
-40.61
-46.00
-51.81
-57.23
-61.08
-62.09
-59.30
-52.49
-42.29
-30.05
-17.36
-5.57
4.50
12.55
18.62
22.79
25.14
25.82
25.17
23.74
22.22
21.16
20.78
21.01
21.60
22.29
23.00
23.73
24.47
25.11
25.44
25.26
24.43
22.94
20.79
17.99
14.59
10.69
6.48
2.24
-1.82
-5.61
-9.15
-12.62
-16.16
-19.88
-23.88
-28.27
-33.10
-38.33
-43.61
-48.27
-51.36
-51.99
-49.55
-43.95
-35.68
-25.62
-14.81
-4.24
5.32
13.27
19.21
22.92
24.38
23.82
21.76
18.94
16.17
14.20
13.50
14.17
15.93
18.26
20.53
22.22
23.07
23.09
22.49
21.49
20.26
18.74
16.77
14.16
10.78
6.69
2.00
-3.11
-8.47
-13.98
-19.58
-25.24
-30.98
-36.89
-43.07
-49.50
-55.91
-61.68
-65.86
-67.41
-65.52
-59.90
-50.92
-39.51
-26.89
-14.31
-2.72
7.24
15.26
21.23
25.21
27.35
27.89
27.24
25.99
24.80
24.28
24.80
26.35
28.54
30.78
32.41
32.97
32.23
30.22
27.21
23.56
19.68
15.80
12.05
8.34
4.45
0.17
-4.55
-9.55
-14.52
-19.16
-23.33
-27.11
-30.81
-34.74
-39.25
-44.57
-50.80
-57.85
-65.26
-72.14
-77.25
-79.26
-77.13
-70.51
-59.86
-46.36
-31.53
-16.80
-3.28
8.39
17.90
25.09
29.90
32.38
32.77
31.65
29.80
28.10
27.24
27.55
28.95
31.05
33.33
35.39
36.99
38.03
38.51
38.39
37.59
36.05
33.69
30.52
26.62
22.05
16.88
11.19
5.13
-1.08
-7.16
-12.84
-17.98
-22.62
-27.05
-31.68
-36.99
-43.33
-50.76
-58.89
-66.82
-73.20
-76.54
-75.61
-69.82
-59.48
-45.74
-30.21
-14.57
-0.18
12.17
22.16
29.80
35.29
38.88
40.89
41.72
41.85
41.77
41.92
42.56
43.72
45.26
46.94
48.49
49.73
50.53
50.83
50.53
49.52
47.67
44.91
41.26
36.84
31.87
26.54
21.02
15.38
9.64
3.88
-1.80
-7.18
-12.07
-16.33
-20.02
-23.45
-27.08
-31.43
-36.91
-43.52
-50.81
-57.74
-62.94
-65.02
-62.99
-56.56
-46.22
-33.11
-18.69
-4.35
8.74
19.79
28.26
33.93
36.81
37.23
35.82
33.48
31.13
29.58
29.29
30.36
32.49
35.20
37.91
40.11
41.45
41.80
41.17
39.71
37.58
34.96
31.95
28.63
24.99
21.00
16.59
11.75
6.54
1.14
-4.20
-9.19
-13.66
-17.65
-21.43
-25.46
-30.28
-36.38
-43.89
-52.45
-61.12
-68.41
-72.71
-72.66
-67.61
-57.85
-44.55
-29.35
-13.94
0.30
12.49
22.21
29.37
34.06
36.52
37.15
36.51
35.29
34.18
33.74
34.24
35.60
37.52
39.57
41.39
42.72
43.46
43.50
42.76
41.10
38.45
34.85
30.52
25.82
21.11
16.61
12.32
8.02
3.46
-1.53
-6.89
-12.40
-17.70
-22.52
-26.77
-30.58
-34.29
-38.47
-43.70
-50.42
-58.71
-68.00
-77.04
-84.13
-87.48
-85.83
-78.83
-67.14
-52.26
-35.99
-19.95
-5.22
7.66
18.50
27.24
33.81
38.19
40.59
41.53
41.77
42.08
43.05
44.81
47.15
49.64
51.88
53.61
54.76
55.35
55.36
54.74
53.36
51.08
47.84
43.69
38.82
33.57
28.36
23.58
19.44
15.88
12.56
9.07
5.02
0.37
-4.64
-9.56
-13.97
-17.74
-21.14
-24.75
-29.27
-35.27
-42.96
-52.06
-61.80
-70.90
-77.81
-81.04
-79.50
-72.93
-61.93
-47.90
-32.57
-17.52
-3.86
7.86
17.53
25.28
31.24
35.55
38.35
39.93
40.67
41.09
41.67
42.71
44.25
46.07
47.81
49.15
49.90
50.10
49.94
49.57
49.00
48.12
46.72
44.64
41.86
38.49
34.72
30.74
26.72
22.76
18.90
15.11
11.29
7.32
3.16
-1.15
-5.44
-9.54
-13.34
-16.84
-20.22
-23.73
-27.68
-32.38
-38.10
-44.94
-52.77
-60.93
-68.32
-73.51
-75.09
-72.16
-64.65
-53.39
-39.83
-25.63
-12.15
-0.26
9.69
17.66
23.72
27.93
30.38
31.33
31.25
30.80
30.60
31.03
32.13
33.58
34.94
35.90
36.34
36.44
36.42
36.40
36.27
35.75
34.54
32.48
29.67
26.35
22.88
19.51
16.40
13.57
10.96
8.47
5.98
3.43
0.76
-2.02
-4.83
-7.56
-10.14
-12.57
-15.02
-17.75
-21.08
-25.29
-30.52
-36.61
-43.10
-49.15
-53.69
-55.67
-54.31
-49.38
-41.28
-30.96
-19.61
-8.41
1.69
10.03
16.23
20.15
21.85
21.69
20.21
18.16
16.26
15.06
14.83
15.51
16.80
18.31
19.69
20.76
21.47
21.89
22.04
21.83
21.09
19.64
17.41
14.59
11.50
8.54
5.98
3.87
1.99
0.02
-2.36
-5.30
-8.77
-12.52
-16.24
-19.63
-22.56
-25.09
-27.51
-30.24
-33.71
-38.20
-43.69
-49.79
-55.71
-60.40
-62.68
-61.62
-56.79
-48.46
-37.56
-25.48
-13.67
-3.30
4.97
10.99
15.04
17.48
18.73
19.08
18.78
18.10
17.35
16.87
16.86
17.39
18.34
19.48
20.58
21.49
22.13
22.54
22.69
22.54
21.97
20.85
19.11
16.77
13.96
10.84
7.64
4.47
1.39
-1.64
-4.69
-7.82
-11.01
-14.16
-17.18
-20.00
-22.73
-25.60
-28.97
-33.21
-38.51
-44.73
-51.33
-57.39
-61.76
-63.44
-61.78
-56.71
-48.79
-38.94
-28.26
-17.72
-8.02
0.41
7.36
12.74
16.55
18.89
20.02
20.34
20.32
20.39
20.81
21.58
22.55
23.54
24.42
25.15
25.76
26.23
26.45
26.29
25.62
24.41
22.72
20.71
18.49
16.14
13.68
11.16
8.64
6.18
3.77
1.31
-1.38
-4.44
-7.92
-11.70
-15.55
-19.24
-22.68
-25.98
-29.51
-33.70
-38.87
-45.03
-51.78
-58.31
-63.53
-66.30
-65.73
-61.42
-53.67
-43.37
-31.82
-20.34
-9.99
-1.31
5.55
10.75
14.47
16.88
18.18
18.66
18.77
18.98
19.67
20.88
22.42
23.89
24.96
25.53
25.72
25.78
25.92
26.13
26.22
25.90
24.93
23.24
20.99
18.45
15.95
13.67
11.63
9.67
7.54
5.05
2.10
-1.22
-4.75
-8.27
-11.62
-14.74
-17.72
-20.75
-24.12
-28.12
-32.93
-38.44
-44.16
-49.21
-52.52
-53.09
-50.38
-44.44
-35.96
-26.02
-15.76
-6.12
2.27
9.08
14.16
17.42
18.91
18.86
17.74
16.24
15.05
14.69
15.31
16.73
18.61
20.58
22.33
23.68
24.45
24.48
23.68
22.06
19.82
17.26
14.73
12.45
10.43
8.54
6.56
4.37
1.89
-0.87
-3.82
-6.88
-10.00
-13.13
-16.31
-19.65
-23.37
-27.74
-32.93
-38.88
-45.23
-51.23
-55.88
-58.13
-57.14
-52.49
-44.30
-33.22
-20.37
-7.06
5.42
16.02
24.10
29.38
31.94
32.12
30.44
27.59
24.33
21.43
19.50
18.85
19.42
20.79
22.42
23.78
24.59
24.81
24.56
23.97
23.08
21.78
19.94
17.48
14.46
11.08
7.54
3.97
0.29
-3.66
-7.97
-12.56
-17.14
-21.38
-25.10
-28.49
-32.07
-36.48
-42.22
-49.34
-57.29
-65.02
-71.20
-74.67
-74.60
-70.72
-63.34
-53.20
-41.29
-28.72
-16.52
-5.51
3.75
11.08
16.56
20.51
23.33
25.42
27.11
28.68
30.34
32.24
34.45
36.93
39.48
41.85
43.77
45.03
45.55
45.31
44.33
42.65
40.29
37.29
33.77
29.91
25.87
21.77
17.62
13.31
8.84
4.24
-0.30
-4.56
-8.46
-12.10
-15.84
-20.15
-25.49
-32.14
-40.12
-49.06
-58.14
-66.17
-71.79
-73.73
-71.26
-64.41
-53.98
-41.40
-28.23
-15.78
-4.86
4.28
11.74
17.80
22.62
26.30
28.91
30.64
31.85
32.97
34.42
36.37
38.75
41.27
43.63
45.58
46.98
47.76
47.85
47.17
45.62
43.19
39.97
36.16
32.01
27.81
23.83
20.29
17.21
14.45
11.70
8.62
4.97
0.80
-3.68
-8.11
-12.25
-16.07
-19.81
-23.91
-28.90
-35.17
-42.83
-51.53
-60.30
-67.71
-72.10
-72.18
-67.35
-58.08
-45.68
-31.90
-18.34
-6.12
4.26
12.71
19.30
24.08
27.09
28.50
28.71
28.39
28.26
28.87
30.41
32.69
35.34
37.94
40.29
42.29
43.98
45.31
46.10
46.13
45.20
43.29
40.59
37.41
34.02
30.57
27.10
23.48
19.64
15.54
11.22
6.79
2.36
-1.96
-6.07
-9.88
-13.38
-16.68
-20.03
-23.85
-28.54
-34.29
-40.92
-47.74
-53.62
-57.30
-57.67
-54.17
-46.99
-37.01
-25.49
-13.78
-3.00
6.17
13.45
18.85
22.51
24.64
25.49
25.43
24.90
24.44
24.50
25.38
27.04
29.20
31.44
33.31
34.49
34.83
34.29
32.95
30.97
28.54
25.92
23.37
21.04
18.94
16.92
14.75
12.19
9.11
5.51
1.55
-2.55
-6.59
-10.46
-14.21
-18.12
-22.51
-27.73
-33.93
-40.94
-48.18
-54.72
-59.40
-61.10
-59.05
-53.06
-43.63
-31.82
-18.98
-6.43
4.77
13.95
20.76
25.19
27.47
28.03
27.50
26.55
25.78
25.61
26.22
27.55
29.41
31.50
33.52
35.16
36.14
36.25
35.34
33.40
30.54
27.02
23.15
19.27
15.61
12.23
8.99
5.69
2.16
-1.65
-5.60
-9.52
-13.24
-16.73
-20.08
-23.47
-27.19
-31.55
-36.88
-43.40
-51.04
-59.21
-66.79
-72.29
-74.29
-71.91
-65.14
-54.86
-42.55
-29.77
-17.72
-7.02
2.19
10.09
16.76
22.22
26.39
29.26
31.05
32.14
33.00
33.98
35.17
36.46
37.64
38.59
39.30
39.85
40.26
40.38
39.89
38.48
36.02
32.66
28.79
24.91
21.37
18.30
15.54
12.73
9.51
5.66
1.16
-3.79
-8.84
-13.60
-17.84
-21.55
-24.96
-28.50
-32.69
-38.02
-44.69
-52.46
-60.51
-67.51
-71.92
-72.47
-68.59
-60.63
-49.68
-37.25
-24.75
-13.18
-3.02
5.62
12.76
18.49
22.86
25.97
28.05
29.44
30.54
31.72
33.21
35.05
37.10
39.14
40.94
42.38
43.46
44.24
44.81
45.17
45.22
44.73
43.46
41.21
38.02
34.11
29.89
25.78
22.05
18.69
15.41
11.81
7.52
2.53
-2.86
-8.15
-12.87
-16.79
-20.07
-23.12
-26.45
-30.55
-35.77
-42.25
-49.86
-58.08
-65.94
-72.12
-75.26
-74.41
-69.33
-60.56
-49.28
-36.85
-24.45
-12.90
-2.67
6.06
13.22
18.83
23.00
25.98
28.09
29.73
31.25
32.96
35.01
37.39
39.93
42.33
44.28
45.64
46.39
46.72
46.84
46.81
46.54
45.74
44.07
41.25
37.27
32.35
26.88
21.35
16.14
11.50
7.46
3.95
0.78
-2.25
-5.29
-8.41
-11.66
-15.05
-18.55
-22.17
-25.96
-30.07
-34.76
-40.28
-46.79
-54.11
-61.62
-68.29
-72.85
-74.19
-71.70
-65.47
-56.21
-45.04
-33.09
-21.31
-10.39
-0.79
7.07
12.86
16.44
17.94
17.90
17.15
16.56
16.77
17.99
20.02
22.42
24.75
26.77
28.41
29.79
30.95
31.84
32.31
32.18
31.35
29.87
27.89
25.58
23.06
20.33
17.30
13.89
10.05
5.87
1.57
-2.58
-6.35
-9.64
-12.45
-14.94
-17.36
-20.00
-23.22
-27.33
-32.46
-38.38
-44.41
-49.48
-52.34
-52.00
-48.08
-40.89
-31.40
-20.86
-10.45
-0.98
7.11
13.66
18.62
21.90
23.46
23.47
22.32
20.72
19.43
19.03
19.75
21.41
23.58
25.77
27.62
29.02
29.92
30.35
30.23
29.46
27.93
25.68
22.90
19.88
16.91
14.10
11.36
8.41
5.00
1.02
-3.37
-7.82
-11.95
-15.54
-18.65
-21.57
-24.76
-28.67
-33.60
-39.67
-46.65
-54.00
-60.83
-66.09
-68.71
-67.96
-63.62
-56.12
-46.34
-35.43
-24.46
-14.21
-5.13
2.60
8.90
13.78
17.33
19.72
21.30
22.46
23.59
24.91
26.44
28.10
29.76
31.38
32.93
34.41
35.66
36.46
36.50
35.60
33.73
31.09
27.99
24.78
21.66
18.69
15.82
12.85
9.63
6.07
2.18
-1.93
-6.07
-10.05
-13.81
-17.43
-21.12
-25.23
-30.09
-35.92
-42.65
-49.90
-56.87
-62.48
-65.56
-65.19
-60.97
-53.20
-42.82
-31.16
-19.54
-8.98
-0.06
7.07
12.51
16.43
19.08
20.74
21.75
22.51
23.34
24.48
25.96
27.68
29.46
31.16
32.66
33.90
34.87
35.50
35.71
35.38
34.37
32.60
30.10
26.97
23.46
19.82
16.26
12.86
9.60
6.34
2.95
-0.64
-4.45
-8.37
-12.30
-16.14
-19.92
-23.80
-28.13
-33.26
-39.41
-46.38
-53.47
-59.51
-63.24
-63.62
-60.27
-53.54
-44.39
-34.00
-23.45
-13.49
-4.52
3.29
9.84
14.99
18.65
20.81
21.70
21.75
21.50
21.48
22.00
23.16
24.82
26.70
28.50
29.99
31.00
31.49
31.45
30.86
29.72
28.05
25.88
23.31
20.48
17.50
14.46
11.38
8.22
4.94
1.50
-2.06
-5.68
-9.28
-12.79
-16.23
-19.72
-23.44
-27.59
-32.29
-37.47
-42.69
-47.21
-50.06
-50.30
-47.38
-41.31
-32.78
-22.90
-12.93
-3.87
3.64
9.38
13.36
15.74
16.69
16.50
15.57
14.51
13.93
14.34
15.92
18.47
21.51
24.44
26.78
28.20
28.62
28.15
26.98
25.33
23.40
21.31
19.09
16.66
13.91
10.77
7.24
3.44
-0.44
-4.22
-7.84
-11.33
-14.89
-18.73
-23.06
-28.03
-33.72
-40.04
-46.75
-53.32
-58.98
-62.75
-63.78
-61.48
-55.82
-47.35
-37.04
-26.04
-15.34
-5.62
2.85
10.00
15.81
20.24
23.19
24.67
24.93
24.50
24.04
24.15
25.12
26.87
29.05
31.23
33.06
34.36
35.10
35.25
34.76
33.50
31.38
28.42
24.78
20.73
16.56
12.44
8.41
4.41
0.40
-3.46
-6.86
-9.42
-10.94
-11.61
-11.97
-12.84
-15.02
-19.04
-25.04
-32.76
-41.53
-50.38
-58.12
-63.51
-65.51
-63.59
-57.86
-49.09
-38.44
-27.11
-16.10
-6.04
2.73
10.07
15.94
20.42
23.69
26.03
27.82
29.38
30.91
32.49
34.07
35.61
37.03
38.31
39.36
40.06
40.27
39.86
38.79
37.10
34.90
32.31
29.42
26.32
23.10
19.87
16.73
13.71
10.69
7.49
3.91
-0.13
-4.49
-8.89
-12.99
-16.60
-19.84
-23.11
-27.03
-32.13
-38.57
-45.98
-53.45
-59.73
-63.53
-63.90
-60.44
-53.41
-43.65
-32.30
-20.55
-9.38
0.59
9.07
16.06
21.66
26.00
29.19
31.34
32.65
33.45
34.10
34.97
36.26
37.96
39.86
41.67
43.18
44.27
44.98
45.37
45.41
45.00
43.98
42.21
39.63
36.37
32.66
28.81
25.09
21.66
18.51
15.49
12.42
9.14
5.65
2.03
-1.52
-4.88
-8.05
-11.15
-14.36
-17.86
-21.84
-26.45
-31.80
-37.91
-44.49
-50.92
-56.22
-59.31
-59.28
-55.78
-49.10
-40.02
-29.56
-18.70
-8.17
1.50
9.89
16.64
21.44
24.17
25.00
24.42
23.15
21.99
21.53
22.06
23.43
25.26
27.05
28.45
29.35
29.87
30.20
30.42
30.40
29.91
28.70
26.76
24.28
21.58
18.90
16.30
13.66
10.75
7.45
3.75
-0.19
-4.14
-7.92
-11.43
-14.67
-17.75
-20.87
-24.27
-28.20
-32.84
-38.23
-44.18
-50.22
-55.56
-59.27
-60.43
-58.38
-52.98
-44.59
-34.07
-22.54
-11.11
-0.72
8.03
14.84
19.63
22.53
23.78
23.78
22.97
21.88
20.98
20.64
21.02
22.11
23.70
25.48
27.08
28.23
28.76
28.63
27.89
26.63
24.87
22.64
19.95
16.90
13.71
10.67
8.01
5.73
3.61
1.23
-1.74
-5.43
-9.63
-13.91
-17.80
-21.04
-23.67
-26.01
-28.51
-31.61
-35.63
-40.69
-46.65
-53.05
-59.06
-63.65
-65.74
-64.59
-60.01
-52.48
-42.93
-32.45
-21.99
-12.16
-3.32
4.37
10.75
15.70
19.21
21.44
22.78
23.69
24.61
25.80
27.34
29.09
30.80
32.20
33.08
33.32
33.02
32.36
31.58
30.80
29.99
28.91
27.29
24.96
21.98
18.66
15.37
12.40
9.82
7.41
4.87
1.92
-1.52
-5.31
-9.16
-12.76
-15.97
-18.86
-21.74
-25.04
-29.18
-34.39
-40.59
-47.41
-54.12
-59.79
-63.44
-64.29
-61.87
-56.24
-47.89
-37.68
-26.65
-15.72
-5.66
3.09
10.26
15.79
19.71
22.16
23.38
23.76
23.73
23.71
24.00
24.76
25.96
27.44
28.97
30.34
31.38
32.03
32.28
32.12
31.53
30.47
28.87
26.75
24.15
21.25
18.24
15.31
12.59
10.04
7.55
4.91
1.94
-1.42
-5.13
-8.97
-12.70
-16.11
-19.12
-21.84
-24.60
-27.87
-32.08
-37.48
-43.92
-50.78
-57.07
-61.57
-63.23
-61.46
-56.31
-48.43
-38.82
-28.54
-18.45
-9.14
-0.90
6.10
11.76
16.04
18.98
20.71
21.46
21.57
21.44
21.48
22.09
23.58
26.03
29.21
32.60
35.50
37.31
37.67
36.61
34.43
31.60
28.48
25.31
22.20
19.21
16.40
13.85
11.57
9.45
7.26
4.80
1.93
-1.30
-4.67
-7.91
-10.80
-13.26
-15.41
-17.52
-19.99
-23.22
-27.50
-32.80
-38.74
-44.56
-49.20
-51.65
-51.17
-47.51
-41.00
-32.43
-22.75
-12.93
-3.74
4.28
10.78
15.52
18.44
19.61
19.33
18.10
16.48
15.00
14.08
13.95
14.62
15.93
17.63
19.35
20.76
21.59
21.73
21.25
20.27
18.91
17.25
15.26
12.92
10.31
7.56
4.78
2.03
-0.74
-3.61
-6.60
-9.60
-12.49
-15.16
-17.70
-20.44
-23.80
-28.13
-33.44
-39.24
-44.70
-48.74
-50.39
-49.06
-44.65
-37.55
-28.55
-18.61
-8.68
0.45
8.16
14.16
18.30
20.65
21.46
21.08
19.99
18.67
17.63
17.23
17.64
18.87
20.71
22.91
25.17
27.21
28.79
29.69
29.74
28.84
27.03
24.46
21.38
18.00
14.50
10.93
7.29
3.53
-0.34
-4.30
-8.28
-12.21
-16.13
-20.16
-24.56
-29.64
-35.68
-42.74
-50.52
-58.36
-65.24
-70.04
-71.79
-69.91
-64.41
-55.84
-45.16
-33.49
-21.80
-10.79
-0.89
7.69
14.82
20.39
24.34
26.72
27.80
27.98
27.85
27.89
28.45
29.60
31.15
32.78
34.15
35.05
35.43
35.35
34.88
34.05
32.84
31.20
29.08
26.48
23.42
19.89
15.87
11.32
6.31
1.01
-4.35
-9.47
-14.23
-18.66
-22.96
-27.49
-32.57
-38.41
-44.92
-51.66
-57.88
-62.57
-64.72
-63.58
-58.88
-50.91
-40.53
-28.90
-17.23
-6.48
2.74
10.23
16.05
20.34
23.30
25.12
26.05
26.42
26.61
26.97
27.77
29.06
30.77
32.71
34.61
36.23
37.28
37.51
36.73
34.88
32.11
28.76
25.21
21.78
18.59
15.57
12.51
9.23
5.66
1.87
-1.98
-5.75
-9.37
-12.99
-16.84
-21.25
-26.48
-32.59
-39.34
-46.20
-52.33
-56.77
-58.57
-57.05
-51.95
-43.52
-32.55
-20.17
-7.65
3.91
13.75
21.54
27.27
31.14
33.44
34.50
34.69
34.41
34.08
34.07
34.60
35.65
37.02
38.31
39.17
39.38
38.96
38.12
37.10
36.09
35.08
33.88
32.28
30.13
27.39
24.17
20.58
16.70
12.55
8.16
3.63
-0.87
-5.18
-9.23
-13.11
-17.04
-21.28
-25.91
-30.71
-35.19
-38.61
-40.26
-39.65
-36.60
-31.32
-24.30
-16.20
-7.70
0.53
7.97
14.23
19.10
22.59
24.77
25.80
25.87
25.13
23.82
22.22
20.62
19.27
18.31
17.68
17.25
16.86
16.37
15.77
15.12
14.47
13.83
13.14
12.27
11.15
9.77
8.14
6.30
4.17
1.59
-1.66
-5.75
-10.72
-16.44
-22.56
-28.58
-33.87
-37.76
-39.70
-39.43
-37.11
-33.28
-28.65
-23.75
-18.68
-13.21
-7.02
-0.17
6.75
12.70
16.64
18.02
17.04
14.59
11.94
10.30
10.55
13.08
17.78
23.92
30.19
34.87
36.22
33.14
25.63
14.93
3.00
-8.22
-17.52
-24.75
-30.50
-35.53
-40.21
-44.30
-47.19
-48.38
-47.71
-45.54
-42.54
-39.37
-36.55
-34.28
-32.54
-31.09
-29.59
-27.63
-24.89
-21.21
-16.69
-11.71
-6.85
-2.73
0.15
1.59
1.68
0.79
-0.56
-1.85
-2.77
-3.21
-3.29
-3.22
-3.10
-2.95
-2.64
-2.05
-1.17
-0.15
0.70
0.99
0.38
-1.37
-4.44
-8.94
-14.85
-21.93
-29.59
-36.85
-42.53
-45.51
-45.13
-41.37
-34.87
-26.66
-17.81
-9.12
-0.97
6.51
13.27
19.15
23.79
26.80
28.02
27.62
26.19
24.60
23.62
23.67
24.67
26.09
27.20
27.36
26.27
24.06
21.13
18.00
15.04
12.40
10.00
7.58
4.75
1.05
-4.00
-10.73
-19.13
-28.69
-38.28
-46.41
-51.50
-52.41
-48.73
-40.90
-30.06
-17.71
-5.32
5.95
15.35
22.55
27.50
30.38
31.50
31.29
30.30
29.07
28.13
27.79
28.16
29.10
30.41
31.88
33.34
34.71
35.82
36.36
35.90
33.92
30.11
24.41
17.20
9.15
1.06
-6.30
-12.50
-17.46
-21.51
-25.23
-29.36
-34.58
-41.28
-49.32
-57.89
-65.64
-70.96
-72.49
-69.58
-62.46
-52.15
-40.01
-27.32
-14.90
-3.09
8.11
18.72
28.57
37.38
44.79
50.60
54.89
58.01
60.48
62.74
65.01
67.18
68.86
69.61
69.12
67.39
64.65
61.24
57.41
53.21
48.50
43.09
36.86
29.91
22.57
15.28
8.44
2.32
-3.03
-7.79
-12.25
-16.82
-21.91
-27.86
-34.88
-42.87
-51.31
-59.24
-65.39
-68.47
-67.53
-62.31
-53.25
-41.36
-27.87
-13.93
-0.40
12.14
23.32
32.88
40.62
46.49
50.60
53.28
54.95
56.03
56.83
57.53
58.16
58.76
59.35
59.94
60.45
60.64
60.08
58.29
54.96
50.09
44.07
37.55
31.24
25.60
20.76
16.51
12.44
8.18
3.55
-1.42
-6.52
-11.46
-16.04
-20.15
-23.88
-27.53
-31.55
-36.46
-42.63
-50.15
-58.67
-67.28
-74.72
-79.58
-80.64
-77.24
-69.43
-58.02
-44.27
-29.67
-15.53
-2.75
8.19
17.13
24.12
29.22
32.53
34.30
34.90
34.86
34.72
34.86
35.45
36.42
37.60
38.81
39.96
41.04
41.98
42.69
42.88
42.25
40.55
37.70
33.86
29.40
24.83
20.59
16.88
13.64
10.53
7.16
3.31
-0.96
-5.31
-9.30
-12.65
-15.36
-17.76
-20.39
-23.78
-28.28
-33.97
-40.58
-47.47
-53.70
-58.21
-59.97
-58.33
-53.14
-44.89
-34.54
-23.29
-12.25
-2.23
6.29
13.11
18.20
21.62
23.51
24.13
23.83
23.04
22.22
21.70
21.62
21.96
22.52
23.05
23.38
23.43
23.25
22.95
22.60
22.16
21.49
20.40
18.78
16.67
14.23
11.65
9.08
6.50
3.79
0.82
-2.47
-6.00
-9.57
-12.98
-16.08
-18.88
-21.53
-24.25
-27.27
-30.75
-34.71
-39.04
-43.40
-47.25
-49.88
-50.53
-48.62
-43.87
-36.52
-27.26
-17.14
-7.35
1.15
7.75
12.30
15.01
16.26
16.45
15.91
14.96
13.88
13.02
12.66
12.92
13.71
14.71
15.54
15.91
15.76
15.27
14.70
14.29
14.06
13.86
13.39
12.43
10.89
8.93
6.82
4.80
2.97
1.24
-0.59
-2.72
-5.19
-7.91
-10.71
-13.42
-15.94
-18.32
-20.67
-23.18
-26.02
-29.31
-33.08
-37.13
-41.00
-43.99
-45.34
-44.43
-41.08
-35.55
-28.52
-20.90
-13.52
-7.04
-1.83
1.99
4.44
5.64
5.79
5.18
4.15
3.07
2.29
2.06
2.51
3.64
5.30
7.25
9.21
10.93
12.25
13.16
13.69
13.89
13.72
13.02
11.67
9.64
7.06
4.27
1.60
-0.77
-2.86
-4.85
-6.96
-9.22
-11.47
-13.42
-14.79
-15.52
-15.79
-16.01
-16.66
-18.17
-20.77
-24.34
-28.49
-32.57
-35.83
-37.53
-37.14
-34.46
-29.64
-23.18
-15.82
-8.40
-1.69
3.75
7.55
9.61
10.06
9.15
7.32
5.07
2.94
1.38
0.69
0.89
1.85
3.28
4.88
6.36
7.48
8.07
7.99
7.26
5.96
4.32
2.56
0.87
-0.68
-2.13
-3.53
-4.97
-6.47
-8.08
-9.87
-11.90
-14.19
-16.64
-19.08
-21.33
-23.41
-25.51
-27.98
-31.05
-34.59
-38.09
-40.73
-41.61
-40.12
-36.09
-29.88
-22.22
-14.00
-6.09
0.84
6.39
10.42
12.94
14.03
13.83
12.51
10.35
7.74
5.22
3.30
2.30
2.29
3.04
4.17
5.24
5.92
6.10
5.81
5.17
4.32
3.32
2.20
0.96
-0.45
-2.04
-3.86
-5.95
-8.30
-10.88
-13.62
-16.36
-19.02
-21.59
-24.23
-27.23
-30.95
-35.57
-41.00
-46.70
-51.86
-55.50
-56.78
-55.24
-50.89
-44.16
-35.79
-26.60
-17.38
-8.82
-1.46
4.35
8.44
10.86
11.85
11.80
11.15
10.30
9.56
9.16
9.21
9.72
10.64
11.86
13.20
14.42
15.32
15.71
15.56
14.91
13.82
12.35
10.40
7.82
4.48
0.43
-4.06
-8.55
-12.61
-15.98
-18.77
-21.36
-24.31
-28.08
-32.93
-38.74
-45.08
-51.25
-56.41
-59.69
-60.34
-57.88
-52.21
-43.68
-33.08
-21.43
-9.82
0.83
9.83
16.86
21.83
24.92
26.42
26.71
26.20
25.31
24.44
23.91
23.93
24.58
25.74
27.18
28.52
29.36
29.42
28.61
27.06
25.05
22.82
20.42
17.72
14.50
10.60
6.12
1.34
-3.32
-7.59
-11.41
-15.03
-18.90
-23.54
-29.29
-36.23
-44.00
-51.84
-58.64
-63.15
-64.29
-61.35
-54.28
-43.65
-30.56
-16.39
-2.53
9.87
20.05
27.60
32.49
34.97
35.47
34.60
33.06
31.52
30.55
30.50
31.45
33.19
35.38
37.57
39.35
40.48
40.85
40.49
39.48
37.86
35.52
32.31
28.11
22.92
17.04
10.93
5.10
-0.10
-4.62
-8.76
-13.04
-18.03
-24.15
-31.45
-39.59
-47.72
-54.64
-59.06
-59.80
-56.18
-48.17
-36.45
-22.24
-7.04
7.65
20.54
30.74
37.75
41.48
42.19
40.46
37.14
33.20
29.65
27.25
26.45
27.23
29.25
31.90
34.56
36.75
38.19
38.78
38.47
37.25
35.03
31.72
27.35
22.16
16.56
11.01
5.85
1.20
-3.14
-7.58
-12.52
-18.35
-25.19
-32.92
-41.09
-48.82
-54.97
-58.19
-57.39
-51.92
-41.95
-28.38
-12.69
3.47
18.62
31.65
41.88
48.95
52.81
53.61
51.84
48.26
43.85
39.67
36.57
35.05
35.18
36.63
38.81
41.09
42.92
43.94
44.03
43.21
41.57
39.15
35.84
31.51
26.10
19.73
12.75
5.67
-1.07
-7.18
-12.68
-17.80
-22.94
-28.54
-35.00
-42.55
-51.16
-60.36
-69.20
-76.38
-80.44
-80.20
-75.04
-65.12
-51.37
-35.23
-18.38
-2.29
11.91
23.62
32.65
39.11
43.22
45.23
45.46
44.36
42.65
41.19
40.83
42.11
44.96
48.74
52.45
55.13
56.21
55.67
53.90
51.38
48.39
44.89
40.59
35.22
28.73
21.39
13.72
6.24
-0.66
-6.80
-12.33
-17.52
-22.76
-28.48
-35.01
-42.51
-50.78
-59.16
-66.51
-71.42
-72.53
-68.91
-60.45
-47.89
-32.67
-16.49
-0.88
13.06
24.77
34.06
40.95
45.55
48.07
48.88
48.52
47.64
46.82
46.46
46.66
47.31
48.11
48.77
49.06
48.86
48.11
46.84
45.06
42.82
40.18
37.20
33.92
30.38
26.54
22.36
17.79
12.79
7.37
1.63
-4.28
-10.13
-15.67
-20.68
-25.12
-29.19
-33.41
-38.43
-44.77
-52.46
-60.74
-68.14
-72.86
-73.31
-68.69
-59.26
-46.19
-31.19
-15.92
-1.68
10.77
21.02
28.84
34.15
36.99
37.71
37.01
35.82
35.07
35.38
36.85
39.13
41.56
43.53
44.68
45.00
44.78
44.35
43.89
43.30
42.27
40.45
37.67
34.05
29.93
25.76
21.81
18.13
14.52
10.71
6.51
1.97
-2.75
-7.34
-11.57
-15.31
-18.65
-21.80
-25.10
-28.95
-33.68
-39.43
-46.02
-52.81
-58.79
-62.67
-63.26
-59.78
-52.22
-41.25
-28.22
-14.66
-2.00
8.69
16.84
22.30
25.21
25.98
25.15
23.36
21.32
19.69
19.01
19.53
21.19
23.65
26.39
28.89
30.77
31.79
31.93
31.25
29.84
27.81
25.28
22.40
19.33
16.15
12.84
9.32
5.48
1.27
-3.21
-7.76
-12.17
-16.27
-20.01
-23.47
-26.88
-30.57
-34.87
-40.05
-46.10
-52.64
-58.84
-63.57
-65.67
-64.20
-58.88
-50.04
-38.65
-26.04
-13.53
-2.19
7.26
14.48
19.44
22.32
23.45
23.27
22.30
21.10
20.19
19.95
20.57
21.98
23.90
25.94
27.69
28.88
29.41
29.26
28.51
27.16
25.17
22.53
19.31
15.70
11.95
8.27
4.75
1.32
-2.19
-5.90
-9.85
-13.89
-17.84
-21.50
-24.81
-27.90
-31.07
-34.80
-39.58
-45.72
-53.13
-61.12
-68.47
-73.64
-75.23
-72.40
-65.17
-54.42
-41.60
-28.29
-15.79
-4.92
3.97
10.83
15.75
18.88
20.46
20.88
20.67
20.41
20.57
21.39
22.79
24.50
26.23
27.77
29.07
30.22
31.29
32.24
32.94
33.17
32.73
31.49
29.43
26.70
23.51
20.12
16.70
13.33
9.89
6.24
2.25
-2.07
-6.55
-10.95
-15.02
-18.62
-21.82
-24.89
-28.19
-32.13
-37.07
-43.13
-50.06
-57.17
-63.35
-67.31
-67.93
-64.61
-57.51
-47.54
-35.99
-24.26
-13.40
-4.01
3.69
9.73
14.19
17.20
18.92
19.67
19.92
20.19
20.86
22.13
23.91
25.89
27.78
29.34
30.52
31.36
31.90
32.05
31.61
30.39
28.30
25.45
22.15
18.75
15.52
12.57
9.87
7.28
4.62
1.79
-1.24
-4.46
-7.74
-10.92
-13.83
-16.41
-18.67
-20.88
-23.45
-26.84
-31.43
-37.24
-43.85
-50.38
-55.66
-58.46
-57.88
-53.56
-45.87
-35.75
-24.49
-13.36
-3.37
4.88
11.14
15.46
18.08
19.33
19.59
19.27
18.76
18.43
18.52
19.17
20.35
21.92
23.58
25.04
25.99
26.29
25.94
25.13
24.01
22.72
21.24
19.48
17.34
14.88
12.20
9.45
6.65
3.74
0.59
-2.84
-6.46
-10.02
-13.28
-16.14
-18.77
-21.61
-25.20
-29.96
-35.84
-42.31
-48.30
-52.59
-54.06
-52.09
-46.71
-38.56
-28.64
-18.01
-7.65
1.75
9.65
15.77
20.04
22.63
23.94
24.48
24.74
25.00
25.36
25.78
26.17
26.47
26.71
26.90
27.03
26.97
26.53
25.48
23.74
21.36
18.69
16.20
14.31
13.22
12.76
12.45
11.70
10.05
7.30
3.52
-1.02
-6.00
-11.12
-16.17
-20.99
-25.57
-30.04
-34.63
-39.63
-45.23
-51.31
-57.36
-62.51
-65.70
-65.95
-62.66
-55.84
-46.14
-34.68
-22.73
-11.46
-1.73
6.05
11.81
15.71
18.05
19.19
19.52
19.44
19.31
19.41
19.88
20.78
22.05
23.62
25.38
27.16
28.73
29.84
30.28
29.93
28.85
27.23
25.27
23.07
20.59
17.64
14.08
9.86
5.17
0.29
-4.41
-8.66
-12.38
-15.61
-18.60
-21.66
-25.20
-29.58
-35.03
-41.49
-48.49
-55.11
-60.09
-62.21
-60.56
-54.95
-45.88
-34.58
-22.52
-11.01
-0.98
7.20
13.62
18.51
22.15
24.68
26.23
26.97
27.21
27.38
27.86
28.83
30.21
31.69
32.92
33.65
33.90
33.84
33.67
33.44
32.99
32.02
30.26
27.58
24.06
19.99
15.65
11.28
6.99
2.77
-1.41
-5.52
-9.47
-13.14
-16.47
-19.53
-22.52
-25.79
-29.70
-34.49
-40.18
-46.44
-52.59
-57.68
-60.69
-60.73
-57.34
-50.62
-41.23
-30.31
-19.08
-8.70
0.11
7.04
12.14
15.64
17.79
18.85
19.08
18.89
18.77
19.17
20.32
22.15
24.34
26.49
28.29
29.67
30.63
31.22
31.32
30.75
29.37
27.21
24.50
21.57
18.71
16.03
13.48
10.87
8.05
4.88
1.39
-2.37
-6.23
-10.04
-13.69
-17.18
-20.62
-24.24
-28.32
-33.06
-38.47
-44.27
-49.80
-54.13
-56.19
-55.08
-50.39
-42.32
-31.74
-19.87
-8.01
2.77
11.77
18.60
23.11
25.36
25.60
24.34
22.28
20.23
18.90
18.74
19.80
21.83
24.34
26.78
28.68
29.76
29.89
29.18
27.82
26.01
23.89
21.49
18.77
15.65
12.13
8.29
4.28
0.30
-3.44
-6.80
-9.71
-12.24
-14.53
-16.87
-19.63
-23.21
-27.89
-33.71
-40.34
-46.96
-52.42
-55.48
-55.16
-51.08
-43.55
-33.55
-22.35
-11.23
-1.10
7.55
14.55
19.91
23.67
25.87
26.67
26.38
25.54
24.75
24.52
25.06
26.33
28.04
29.95
31.84
33.60
35.09
36.06
36.21
35.28
33.24
30.32
26.95
23.55
20.36
17.34
14.19
10.57
6.31
1.47
-3.61
-8.58
-13.12
-17.15
-20.75
-24.19
-27.74
-31.75
-36.54
-42.34
-49.07
-56.23
-62.81
-67.47
-68.98
-66.59
-60.31
-50.85
-39.39
-27.20
-15.33
-4.52
4.78
12.35
18.13
22.21
24.88
26.52
27.61
28.60
29.84
31.50
33.52
35.68
37.70
39.42
40.80
41.96
43.03
44.00
44.65
44.61
43.54
41.31
38.08
34.21
30.12
26.09
22.16
18.23
14.13
9.73
5.08
0.33
-4.27
-8.52
-12.34
-15.86
-19.39
-23.37
-28.22
-34.26
-41.38
-49.03
-56.18
-61.49
-63.68
-61.91
-56.08
-46.86
-35.51
-23.44
-11.87
-1.62
7.01
14.03
19.54
23.64
26.44
28.08
28.85
29.18
29.56
30.36
31.76
33.62
35.63
37.43
38.74
39.51
39.85
39.97
40.03
39.97
39.61
38.67
36.93
34.38
31.20
27.75
24.40
21.43
18.90
16.68
14.51
12.08
9.22
5.93
2.38
-1.18
-4.59
-7.82
-11.05
-14.62
-18.88
-24.07
-30.24
-37.14
-44.24
-50.77
-55.83
-58.55
-58.27
-54.68
-47.97
-38.79
-28.13
-17.14
-6.87
1.93
8.89
13.94
17.27
19.15
19.90
19.84
19.41
19.09
19.33
20.38
22.20
24.46
