1536070955.00
64.000000
-0.00
-0.00
-0.00
-0.00
-0.00
-0.00
-0.00
-0.00
-0.00
-0.00
0.00
0.01
0.01
-0.00
-0.03
-0.05
-0.05
0.00
0.13
0.36
0.66
1.01
1.37
1.72
2.06
2.40
2.79
3.24
3.80
4.42
5.06
5.66
6.20
6.68
7.15
7.68
8.31
9.14
10.09
11.04
11.88
12.56
13.14
13.76
14.65
15.96
17.91
20.32
22.90
25.38
27.58
29.57
31.68
34.32
37.81
42.54
48.15
54.10
59.83
64.97
69.58
74.14
79.34
85.71
93.76
103.00
112.62
121.73
129.77
136.75
143.30
150.75
157.77
166.64
177.95
191.79
206.97
220.57
228.25
225.36
208.53
176.87
132.76
80.05
23.07
-34.94
-92.44
-149.16
-205.23
-260.37
-313.74
-363.87
-409.83
-450.91
-486.50
-515.74
-537.23
-549.22
-549.96
-538.37
-514.21
-478.67
-433.88
-382.45
-327.02
-269.84
-212.63
-156.66
-102.95
-52.37
-5.90
35.58
71.43
101.35
125.50
144.38
158.69
169.15
176.37
180.75
182.57
182.07
179.51
175.23
169.65
163.18
156.15
148.81
141.30
133.69
126.02
118.33
110.69
103.16
95.80
88.68
81.83
75.25
68.95
62.95
57.25
51.86
46.78
42.03
37.59
33.45
29.61
26.07
22.81
19.83
17.11
14.67
12.48
10.54
8.83
7.35
6.07
4.97
4.05
3.27
2.62
2.09
1.65
1.30
1.01
0.79
0.61
0.47
0.37
0.29
0.23
0.19
0.16
0.14
0.14
0.15
0.16
0.18
0.21
0.24
0.28
0.32
0.36
0.40
0.45
0.50
0.54
0.59
0.65
0.70
0.76
0.83
0.90
0.98
1.06
1.16
1.26
1.38
1.52
1.67
1.83
2.02
2.23
2.46
2.71
2.99
3.30
3.64
4.02
4.42
4.86
5.33
5.84
6.40
7.00
7.66
8.35
9.08
9.81
10.54
11.29
12.05
12.88
13.80
14.83
15.96
17.16
18.37
19.56
20.69
21.71
22.57
23.21
23.52
23.33
22.52
20.92
18.49
15.24
11.33
6.93
2.32
-2.28
-6.73
-10.98
-15.01
-18.78
-22.19
-25.02
-27.07
-28.14
-28.28
-27.72
-26.89
-26.25
-26.11
-26.50
-27.17
-27.66
-27.58
-26.82
-25.63
-24.56
-24.21
-24.97
-26.77
-29.10
-31.24
-32.57
-32.84
-32.29
-31.53
-31.26
-32.14
-34.60
-38.82
-44.47
-50.36
-54.51
-54.44
-48.22
-35.39
-17.56
1.96
19.35
31.77
38.27
39.84
38.51
36.15
33.76
31.37
28.62
25.35
21.97
19.15
17.40
16.73
16.64
16.38
15.24
13.02
10.01
6.82
4.18
2.52
2.01
2.48
3.64
5.24
7.08
9.12
11.27
13.44
15.42
17.01
18.02
18.39
18.17
17.48
16.46
15.21
13.81
12.32
10.76
9.18
7.56
5.90
4.19
2.49
0.91
-0.38
-1.24
-1.58
-1.47
-1.16
-0.90
-0.95
-1.45
-2.34
-3.44
-4.48
-5.29
-5.80
-6.12
-6.42
-6.93
-7.80
-9.06
-10.71
-12.61
-14.63
-16.58
-18.26
-19.42
-19.73
-18.88
-16.59
-12.75
-7.55
-1.55
4.37
9.21
12.15
12.81
11.46
8.81
5.80
3.31
1.86
1.64
2.50
4.14
6.22
8.38
10.38
12.05
13.30
14.12
14.54
14.56
14.25
13.74
13.19
12.77
12.51
12.21
11.59
10.31
8.26
5.59
2.65
-0.18
-2.62
-4.58
-6.19
-7.61
-9.02
-10.54
-12.21
-13.97
-15.65
-17.02
-17.79
-17.73
-16.74
-14.88
-12.32
-9.32
-6.15
-3.01
-0.06
2.61
4.95
6.91
8.45
9.51
10.05
10.06
9.66
8.99
8.31
7.85
7.75
8.07
8.71
9.51
10.26
10.78
10.95
10.74
10.21
9.43
8.51
7.54
6.59
5.74
5.08
4.61
4.27
3.90
3.31
2.38
1.14
-0.25
-1.56
-2.62
-3.38
-3.95
-4.50
-5.22
-6.22
-7.48
-8.89
-10.26
-11.34
-11.92
-11.85
-11.05
-9.58
-7.58
-5.23
-2.73
-0.28
1.96
3.82
5.24
6.19
6.74
7.01
7.09
7.06
6.95
6.81
6.71
6.73
6.89
7.18
7.50
7.68
7.64
7.34
6.90
6.42
5.99
5.60
5.21
4.72
4.13
3.49
2.95
2.70
2.90
3.68
5.05
6.87
8.89
10.70
11.90
12.14
11.26
9.34
6.72
3.85
1.23
-0.76
-1.92
-2.19
-1.72
-0.76
0.34
1.26
1.70
1.49
0.60
-0.92
-2.94
-5.31
-7.80
-10.16
-12.11
-13.39
-13.87
-13.58
-12.67
-11.36
-9.81
-8.15
-6.49
-4.92
-3.64
-2.81
-2.55
-2.82
-3.45
-4.23
-4.96
-5.57
-6.12
-6.70
-7.36
-8.14
-8.99
-9.89
-10.79
-11.70
-12.65
-13.72
-14.95
-16.33
-17.79
-19.07
-19.86
-19.86
-18.85
-16.87
-14.14
-10.98
-7.70
-4.49
-1.45
1.38
3.86
5.86
7.26
8.02
8.24
8.11
7.80
7.47
7.17
6.96
6.85
6.86
6.99
7.19
7.38
7.49
7.49
7.42
7.28
7.08
6.76
6.29
5.72
5.10
4.54
4.05
3.52
2.88
2.07
1.13
0.20
-0.66
-1.47
-2.32
-3.25
-4.11
-4.63
-4.41
-3.21
-1.03
1.84
4.94
7.85
10.27
12.06
13.16
13.51
13.04
11.80
9.94
7.72
5.37
2.96
0.23
-3.17
-7.53
-12.91
-19.06
-25.52
-31.82
-37.73
-43.33
-49.06
-55.51
-63.27
-72.64
-83.55
-95.44
-107.46
-118.51
-127.47
-133.27
-135.01
-131.98
-123.70
-110.06
-91.50
-69.10
-44.58
-20.06
2.36
21.06
35.20
44.76
50.47
53.46
54.93
55.96
57.40
59.77
63.26
67.72
72.68
77.54
81.84
85.51
88.78
91.91
94.87
97.12
97.82
96.31
92.52
87.14
81.28
75.94
71.53
67.79
64.01
59.63
54.52
49.17
44.31
40.56
38.07
36.49
35.16
33.47
31.12
28.16
24.89
21.59
18.32
14.95
11.28
7.26
3.08
-0.92
-4.42
-7.29
-9.62
-11.57
-13.25
-14.64
-15.64
-16.21
-16.38
-16.32
-16.07
-15.56
-14.62
-13.11
-11.07
-8.79
-6.66
-5.03
-4.06
-3.66
-3.56
-3.43
-3.03
-2.24
-1.19
-0.16
0.48
0.34
-0.70
-2.54
-4.74
-6.77
-8.13
-8.60
-8.18
-7.06
-5.43
-3.47
-1.40
0.45
1.54
1.25
-0.84
-4.78
-10.15
-16.19
-22.05
-27.11
-31.11
-34.03
-35.92
-36.73
-36.18
-33.88
-29.49
-22.86
-14.20
-4.04
6.84
17.51
27.12
35.03
40.90
44.58
46.15
45.69
43.33
39.30
34.01
28.08
22.25
17.17
13.18
10.23
8.02
6.17
4.43
2.64
0.77
-1.21
-3.29
-5.33
-7.03
-7.94
-7.81
-6.71
-5.16
-3.98
-3.91
-5.42
-8.52
-12.91
-18.21
-24.04
-30.11
-36.14
-41.78
-46.67
-50.61
-53.55
-55.63
-57.03
-57.87
-58.10
-57.64
-56.46
-54.67
-52.40
-49.69
-46.34
-41.92
-35.97
-28.25
-18.99
-8.84
1.36
10.88
19.41
27.03
34.03
40.62
46.65
51.62
55.02
56.66
56.91
56.68
57.07
58.86
62.11
66.09
69.54
71.11
69.66
64.52
55.58
43.46
29.71
16.79
7.63
4.61
8.53
17.81
28.77
36.73
37.57
29.22
12.17
-10.90
-36.50
-61.59
-84.52
-105.00
-123.44
-140.00
-154.10
-164.64
-170.59
-171.81
-169.32
-164.87
-160.17
-156.07
-152.35
-148.17
-142.68
-135.44
-126.35
-115.21
-101.39
-83.86
-61.72
-34.88
-4.43
27.37
57.70
84.08
104.99
120.31
131.04
138.71
144.66
149.42
152.71
153.64
151.26
144.86
134.17
119.25
100.44
78.27
53.66
27.97
3.19
-18.32
-34.39
-43.78
-46.70
-44.81
-40.49
-35.93
-32.27
-29.40
-26.46
-22.52
-17.16
-10.50
-3.05
4.71
12.49
20.24
27.93
35.41
42.26
47.63
50.39
49.38
44.10
35.19
24.62
15.18
9.44
8.70
12.68
19.83
28.31
36.80
44.78
52.25
59.15
65.05
69.25
71.10
70.32
67.14
62.14
56.08
49.69
43.49
37.83
32.88
28.65
25.09
22.06
19.36
16.74
13.94
10.67
6.70
1.94
-3.47
-9.15
-14.48
-18.88
-22.03
-24.16
-25.87
-28.00
-31.22
-35.73
-41.25
-47.10
-52.50
-56.63
-58.90
-58.92
-56.57
-52.06
-45.84
-38.49
-30.51
-22.33
-14.36
-7.14
-1.39
2.09
2.68
0.24
-4.81
-11.65
-19.24
-26.54
-32.67
-37.00
-39.20
-39.40
-38.11
-36.06
-33.95
-32.19
-30.77
-29.27
-27.19
-24.07
-19.77
-14.46
-8.59
-2.75
2.57
7.04
10.56
13.22
15.11
16.25
16.61
16.16
15.00
13.47
11.91
10.59
9.49
8.33
6.74
4.43
1.39
-2.08
-5.54
-8.57
-10.90
-12.44
-13.27
-13.52
-13.32
-12.82
-12.21
-11.62
-11.20
-10.97
-10.85
-10.73
-10.53
-10.21
-9.89
-9.69
-9.74
-10.08
-10.64
-11.27
-11.77
-11.92
-11.55
-10.51
-8.69
-6.06
-2.67
1.32
5.60
9.85
13.78
17.23
20.18
22.68
24.75
26.28
27.10
27.08
26.21
24.71
22.90
21.12
19.55
18.22
16.95
15.55
13.89
11.97
9.94
7.94
6.12
4.47
2.84
1.07
-0.98
-3.23
-5.52
-7.59
-9.26
-10.52
-11.51
-12.51
-13.76
-15.45
-17.60
-20.13
-22.88
-25.58
-27.88
-29.37
-29.70
-28.67
-26.35
-23.04
-19.24
-15.48
-12.12
-9.30
-6.95
-4.85
-2.84
-0.88
0.97
2.56
3.80
4.69
5.31
5.77
6.13
6.40
6.51
6.38
5.99
5.45
4.92
4.59
4.55
4.73
4.99
5.11
4.96
4.48
3.68
2.63
1.38
-0.01
-1.51
-3.05
-4.59
-6.10
-7.58
-9.13
-10.84
-12.78
-14.94
-17.16
-19.15
-20.50
-20.84
-19.87
-17.54
-14.08
-9.95
-5.71
-1.80
1.50
4.17
6.33
8.13
9.69
11.02
12.10
12.87
13.36
13.63
13.79
13.94
14.11
14.27
14.38
14.38
14.28
14.11
13.89
13.62
13.22
12.61
11.69
10.41
8.85
7.13
5.44
3.91
2.62
1.53
0.53
-0.51
-1.66
-2.93
-4.28
-5.72
-7.29
-9.09
-11.22
-13.68
-16.27
-18.64
-20.37
-21.06
-20.48
-18.65
-15.70
-11.94
-7.74
-3.46
0.59
4.14
6.99
9.08
10.44
11.21
11.58
11.75
11.83
11.82
11.67
11.32
10.75
10.06
9.45
9.12
9.22
9.74
10.50
11.21
11.60
11.53
11.00
10.12
9.03
7.77
6.36
4.72
2.90
1.00
-0.79
-2.39
-3.82
-5.26
-6.97
-9.06
-11.52
-14.13
-16.67
-18.90
-20.71
-22.01
-22.62
-22.30
-20.83
-18.08
-14.21
-9.63
-4.89
-0.51
3.17
6.03
8.13
9.62
10.66
11.38
11.86
12.12
12.20
12.11
11.91
11.68
11.51
11.44
11.47
11.60
11.81
12.06
12.31
12.45
12.37
11.97
11.26
10.36
9.45
8.68
8.07
7.55
7.01
6.37
5.61
4.78
3.86
2.80
1.51
-0.08
-1.98
-4.15
-6.59
-9.31
-12.33
-15.60
-18.92
-21.93
-24.18
-25.24
-24.83
-22.93
-19.76
-15.70
-11.23
-6.77
-2.65
0.95
3.94
6.33
8.14
9.45
10.32
10.83
11.10
11.26
11.43
11.68
12.05
12.48
12.94
13.38
13.84
14.36
14.98
15.62
16.15
16.39
16.22
15.63
14.72
13.63
12.46
11.21
9.81
8.18
6.35
4.38
2.42
0.56
-1.15
-2.71
-4.21
-5.72
-7.32
-9.12
-11.25
-13.77
-16.65
-19.69
-22.59
-24.91
-26.26
-26.33
-24.99
-22.35
-18.64
-14.30
-9.77
-5.48
-1.72
1.42
4.04
6.34
8.45
10.39
12.08
13.37
14.21
14.69
15.00
15.27
15.55
15.77
15.83
15.71
15.50
15.37
15.42
15.57
15.63
15.32
14.45
13.06
11.37
9.67
8.18
6.94
5.80
4.58
3.13
1.50
-0.19
-1.72
-2.98
-3.99
-4.90
-5.92
-7.17
-8.72
-10.56
-12.69
-15.06
-17.61
-20.09
-22.10
-23.15
-22.87
-21.17
-18.28
-14.70
-10.95
-7.42
-4.25
-1.36
1.35
3.90
6.18
7.99
9.15
9.65
9.64
9.37
9.11
9.05
9.21
9.50
9.72
9.76
9.60
9.31
9.04
8.88
8.78
8.60
8.15
7.35
6.25
5.04
3.95
3.07
2.41
1.80
1.11
0.29
-0.61
-1.51
-2.42
-3.46
-4.86
-6.76
-9.15
-11.77
-14.19
-15.95
-16.68
-16.21
-14.57
-11.97
-8.69
-5.07
-1.48
1.77
4.39
6.22
7.25
7.67
7.74
7.79
8.00
8.37
8.77
8.96
8.87
8.56
8.25
8.16
8.37
8.80
9.21
9.40
9.28
8.92
8.48
8.12
7.91
7.84
7.80
7.64
7.21
6.37
5.14
3.67
2.27
1.27
0.81
0.70
0.42
-0.59
-2.71
-5.74
-9.03
-11.62
-12.67
-11.87
-9.56
-6.64
-4.25
-3.43
-4.84
-8.65
-14.65
-22.25
-30.77
-39.38
-47.33
-53.91
-58.71
-61.72
-63.34
-64.16
-64.41
-63.68
-60.94
-55.20
-46.31
-35.36
-24.47
-15.73
-10.15
-7.04
-4.43
-0.20
6.59
15.27
23.86
30.25
33.29
33.13
30.93
27.93
24.81
21.38
16.91
10.75
2.83
-6.12
-14.94
-22.47
-28.07
-31.82
-34.36
-36.41
-38.34
-39.96
-40.63
-39.66
-36.71
-32.04
-26.36
-20.55
-15.13
-10.02
-4.48
2.55
11.85
23.52
36.69
49.75
60.99
69.11
73.73
75.25
74.45
72.05
68.50
64.39
60.57
58.10
57.67
58.93
60.30
59.65
55.47
47.91
38.86
31.16
27.20
27.93
32.68
39.81
47.62
54.95
61.21
66.09
69.32
70.65
70.08
68.00
64.97
61.63
58.43
55.57
53.01
50.54
47.86
44.60
40.49
35.46
29.76
23.91
18.48
13.88
10.19
7.19
4.60
2.28
0.38
-0.72
-0.63
0.82
3.45
6.84
10.60
14.51
18.61
23.01
27.72
32.51
36.84
40.05
41.57
41.15
39.06
36.06
33.20
31.39
31.04
31.81
32.72
32.50
30.10
25.02
17.44
8.16
-1.82
-11.49
-20.03
-26.94
-31.99
-35.32
-37.37
-38.86
-40.64
-43.46
-47.60
-52.75
-57.90
-61.65
-62.71
-60.51
-55.44
-48.76
-42.06
-36.68
-33.16
-31.33
-30.46
-29.86
-29.12
-28.23
-27.33
-26.50
-25.64
-24.48
-22.85
-20.83
-18.81
-17.34
-16.87
-17.55
-19.11
-21.00
-22.54
-23.31
-23.21
-22.59
-22.02
-22.05
-22.99
-24.73
-26.82
-28.71
-30.00
-30.68
-31.03
-31.44
-32.12
-33.04
-33.98
-34.77
-35.44
-36.20
-37.37
-39.09
-41.19
-43.17
-44.30
-43.93
-41.79
-38.08
-33.43
-28.74
-24.77
-21.91
-20.01
-18.57
-16.96
-14.78
-12.03
-9.06
-6.30
-3.96
-1.97
0.00
2.28
4.96
7.87
10.60
12.83
14.42
15.46
16.03
16.06
15.29
13.50
10.83
7.91
5.75
5.31
7.02
10.47
14.50
17.56
18.34
16.15
11.28
4.85
-1.57
-6.51
-9.17
-9.80
-9.49
-9.70
-11.43
-14.73
-18.73
-22.31
-24.80
-26.51
-28.33
-31.07
-34.72
-38.33
-40.66
-40.99
-39.61
-37.68
-36.46
-36.59
-37.78
-39.14
-39.79
-39.28
-37.62
-34.99
-31.55
-27.40
-22.81
-18.42
-15.07
-13.50
-13.85
-15.47
-17.18
-17.88
-17.22
-15.78
-14.78
-15.22
-17.17
-19.54
-20.69
-19.42
-15.89
-11.72
-9.06
-9.39
-12.49
-16.50
-19.05
-18.68
-15.87
-12.89
-12.59
-16.95
-26.19
-38.85
-52.73
-65.97
-77.73
-87.95
-96.79
-103.98
-108.56
-109.32
-105.37
-96.59
-83.56
-67.24
-48.29
-26.96
-3.19
22.70
49.71
76.20
100.13
119.45
132.41
137.63
134.24
122.28
103.11
79.64
55.84
35.78
22.41
16.68
17.63
22.99
30.35
37.78
44.01
48.21
49.70
48.10
43.61
37.25
30.52
24.90
21.10
18.75
16.62
13.40
8.49
2.45
-3.20
-6.56
-6.13
-1.42
6.87
17.18
27.61
36.53
43.04
47.11
49.51
51.34
53.36
55.54
56.99
56.35
52.58
45.44
35.56
24.08
12.05
0.22
-10.94
-20.85
-28.57
-32.95
-33.22
-29.51
-23.16
-16.39
-11.55
-10.26
-12.91
-18.69
-26.13
-33.68
-40.15
-44.72
-46.86
-46.26
-43.01
-37.94
-32.55
-28.51
-26.72
-26.68
-26.54
-24.09
-18.17
-9.52
-0.68
5.36
6.64
3.25
-2.92
-9.23
-13.64
-15.44
-15.15
-13.66
-11.48
-8.31
-3.38
3.89
13.38
24.02
34.22
42.50
48.00
50.65
50.86
49.02
45.22
39.30
31.18
21.26
10.57
0.50
-7.69
-13.34
-16.57
-18.09
-18.82
-19.37
-19.85
-19.89
-18.91
-16.49
-12.61
-7.74
-2.62
1.93
5.33
7.32
7.99
7.67
6.83
5.94
5.35
5.26
5.67
6.40
7.21
7.85
8.20
8.20
7.94
7.49
6.89
6.18
5.36
4.45
3.45
2.36
1.15
-0.24
-1.86
-3.77
-5.97
-8.44
-11.15
-13.98
-16.77
-19.27
-21.15
-22.15
-22.12
-21.13
-19.40
-17.17
-14.62
-11.81
-8.72
-5.40
-1.98
1.32
4.24
6.60
8.37
9.62
10.46
10.98
11.19
11.10
10.73
10.22
9.76
9.51
9.50
9.63
9.71
9.55
9.07
8.28
7.30
6.20
4.96
3.54
1.89
0.03
-2.00
-4.10
-6.29
-8.58
-10.97
-13.30
-15.31
-16.62
-16.90
-15.96
-13.83
-10.73
-7.02
-3.10
0.68
4.06
6.96
9.41
11.55
13.51
15.36
17.00
18.27
18.99
19.11
18.70
17.99
17.20
16.49
15.89
15.33
14.75
14.13
13.51
12.91
12.30
11.56
10.52
9.08
7.22
5.07
2.77
0.42
-2.00
-4.61
-7.53
-10.83
-14.34
-17.72
-20.52
-22.31
-22.85
-22.14
-20.42
-18.04
-15.26
-12.10
-8.43
-4.05
1.02
6.45
11.65
15.98
19.05
20.87
21.82
22.36
22.85
23.37
23.81
24.05
24.08
24.04
24.09
24.30
24.53
24.60
24.32
23.63
22.57
21.25
19.73
18.00
16.04
13.87
11.53
9.08
6.62
4.16
1.72
-0.70
-3.17
-5.79
-8.72
-12.07
-15.80
-19.67
-23.19
-25.80
-27.03
-26.61
-24.62
-21.35
-17.25
-12.77
-8.27
-4.02
-0.13
3.34
6.43
9.18
11.62
13.72
15.44
16.72
17.58
18.07
18.37
18.68
19.16
19.92
20.90
21.94
22.77
23.15
22.95
22.18
20.97
19.56
18.15
16.84
15.64
14.44
13.14
11.64
9.90
7.91
5.70
3.35
0.92
-1.50
-3.83
-6.10
-8.35
-10.71
-13.25
-15.95
-18.61
-20.84
-22.21
-22.33
-21.01
-18.30
-14.47
-9.96
-5.24
-0.76
3.19
6.45
9.06
11.09
12.64
13.79
14.59
15.11
15.46
15.76
16.15
16.66
17.17
17.55
17.63
17.40
16.95
16.44
15.98
15.57
15.13
14.51
13.62
12.46
11.09
9.58
7.96
6.22
4.38
2.47
0.56
-1.26
-2.91
-4.40
-5.74
-7.04
-8.39
-9.89
-11.60
-13.52
-15.53
-17.40
-18.77
-19.33
-18.87
-17.34
-14.90
-11.84
-8.51
-5.21
-2.17
0.49
2.76
4.68
6.29
7.61
8.65
9.37
9.77
9.85
9.68
9.36
9.04
8.85
8.87
9.07
9.31
9.44
9.33
8.97
8.44
7.90
7.44
7.05
6.62
6.03
5.15
3.96
2.49
0.80
-1.05
-2.97
-4.85
-6.65
-8.34
-9.98
-11.65
-13.34
-14.92
-16.11
-16.59
-16.14
-14.77
-12.66
-10.08
-7.26
-4.32
-1.34
1.57
4.24
6.46
8.02
8.91
9.19
9.06
8.70
8.24
7.75
7.28
6.86
6.55
6.41
6.42
6.53
6.65
6.71
6.65
6.42
5.99
5.33
4.45
3.44
2.45
1.60
0.94
0.43
-0.10
-0.82
-1.81
-3.03
-4.37
-5.69
-6.90
-8.05
-9.23
-10.46
-11.67
-12.73
-13.41
-13.53
-13.04
-11.97
-10.38
-8.39
-6.09
-3.61
-1.11
1.19
3.09
4.46
5.32
5.78
5.99
6.05
6.03
5.89
5.63
5.25
4.84
4.50
4.30
4.27
4.37
4.45
4.36
4.00
3.34
2.48
1.57
0.74
0.04
-0.55
-1.11
-1.69
-2.29
-2.88
-3.44
-4.02
-4.74
-5.77
-7.21
-9.04
-11.10
-13.08
-14.61
-15.36
-15.12
-13.88
-11.79
-9.15
-6.30
-3.56
-1.13
0.91
2.54
3.81
4.75
5.42
5.83
6.00
5.96
5.76
5.46
5.10
4.71
4.33
3.99
3.70
3.48
3.32
3.22
3.17
3.13
3.10
3.00
2.77
2.34
1.68
0.77
-0.32
-1.48
-2.61
-3.61
-4.45
-5.13
-5.71
-6.28
-6.91
-7.74
-8.81
-10.11
-11.50
-12.72
-13.47
-13.50
-12.74
-11.31
-9.47
-7.51
-5.62
-3.83
-2.12
-0.44
1.16
2.52
3.49
3.99
4.06
3.89
3.65
3.48
3.36
3.21
2.97
2.63
2.31
2.16
2.27
2.59
2.97
3.23
3.25
3.05
2.66
2.18
1.66
1.10
0.51
-0.13
-0.76
-1.37
-1.98
-2.69
-3.63
-4.91
-6.54
-8.39
-10.18
-11.57
-12.25
-12.02
-10.92
-9.17
-7.09
-4.99
-3.06
-1.37
0.15
1.51
2.71
3.72
4.46
4.96
5.22
5.34
5.34
5.26
5.09
4.80
4.43
4.01
3.64
3.40
3.38
3.56
3.89
4.27
4.52
4.54
4.21
3.54
2.61
1.56
0.58
-0.24
-0.88
-1.49
-2.26
-3.37
-4.88
-6.73
-8.73
-10.67
-12.34
-13.61
-14.39
-14.63
-14.32
-13.49
-12.24
-10.67
-8.91
-7.05
-5.15
-3.21
-1.30
0.48
1.99
3.12
3.79
4.06
4.09
4.06
4.14
4.39
4.77
5.19
5.56
5.80
5.89
5.80
5.48
4.91
4.15
3.30
2.57
2.06
1.81
1.66
1.41
0.90
0.15
-0.71
-1.47
-1.98
-2.24
-2.35
-2.53
-2.95
-3.77
-5.04
-6.75
-8.75
-10.77
-12.45
-13.42
-13.48
-12.57
-10.90
-8.82
-6.70
-4.83
-3.36
-2.31
-1.58
-1.02
-0.43
0.34
1.33
2.52
3.81
5.05
6.11
6.99
7.72
8.36
8.99
9.59
10.12
10.52
10.72
10.73
10.55
10.20
9.67
8.95
8.06
7.05
6.00
4.99
4.00
2.97
1.78
0.32
-1.44
-3.41
-5.44
-7.42
-9.30
-11.12
-12.91
-14.60
-15.97
-16.71
-16.52
-15.29
-13.14
-10.39
-7.43
-4.61
-2.14
-0.09
1.52
2.74
3.60
4.14
4.42
4.52
4.54
4.51
4.46
4.38
4.30
4.24
4.26
4.39
4.66
4.99
5.27
5.35
5.16
4.71
4.09
3.43
2.83
2.32
1.83
1.28
0.59
-0.24
-1.16
-2.13
-3.10
-4.09
-5.07
-6.04
-6.93
-7.76
-8.54
-9.39
-10.32
-11.29
-12.07
-12.33
-11.80
-10.35
-8.13
-5.43
-2.62
0.00
2.30
4.21
5.78
6.98
7.82
8.28
8.39
8.25
7.94
7.60
7.32
7.17
7.17
7.24
7.30
7.20
6.91
6.47
5.98
5.53
5.12
4.66
4.08
3.33
2.47
1.58
0.68
-0.26
-1.31
-2.50
-3.81
-5.20
-6.68
-8.35
-10.25
-12.33
-14.28
-15.62
-15.89
-14.88
-12.67
-9.67
-6.41
-3.33
-0.69
1.47
3.25
4.73
5.95
6.87
7.39
7.46
7.10
6.47
5.84
5.46
5.46
5.80
6.26
6.57
6.54
6.14
5.54
4.93
4.49
4.23
4.00
3.62
2.93
1.93
0.73
-0.51
-1.70
-2.83
-3.99
-5.29
-6.78
-8.49
-10.33
-12.24
-14.11
-15.80
-17.10
-17.75
-17.54
-16.37
-14.34
-11.74
-8.92
-6.21
-3.80
-1.77
-0.09
1.29
2.42
3.30
3.93
4.31
4.50
4.59
4.70
4.95
5.38
5.97
6.60
7.13
7.48
7.65
7.75
7.91
8.15
8.37
8.41
8.11
7.44
6.47
5.41
4.41
3.50
2.64
1.67
0.47
-0.96
-2.53
-4.10
-5.61
-7.11
-8.71
-10.52
-12.44
-14.18
-15.34
-15.54
-14.65
-12.81
-10.40
-7.85
-5.50
-3.49
-1.81
-0.38
0.89
2.01
2.97
3.80
4.53
5.22
5.91
6.62
7.35
8.07
8.77
9.46
10.10
10.70
11.22
11.59
11.76
11.65
11.23
10.48
9.44
8.15
6.68
5.14
3.61
2.21
1.03
0.14
-0.49
-0.91
-1.29
-1.78
-2.44
-3.30
-4.29
-5.34
-6.44
-7.63
-9.00
-10.54
-12.14
-13.51
-14.31
-14.27
-13.32
-11.59
-9.40
-7.11
-4.99
-3.15
-1.54
-0.07
1.30
2.59
3.72
4.69
5.53
6.41
7.41
8.55
9.71
10.67
11.30
11.55
11.56
11.51
11.53
11.60
11.58
11.31
10.72
9.90
8.98
8.16
7.49
6.92
6.34
5.63
4.76
3.74
2.64
1.47
0.24
-1.08
-2.50
-3.99
-5.49
-6.92
-8.30
-9.66
-11.11
-12.70
-14.41
-16.01
-17.18
-17.57
-16.92
-15.19
-12.58
-9.43
-6.13
-2.98
-0.16
2.26
4.29
5.93
7.20
8.05
8.45
8.40
7.93
7.16
6.26
5.42
4.82
4.61
4.80
5.34
6.07
6.82
7.42
7.77
7.83
7.59
7.08
6.36
5.52
4.66
3.90
3.30
2.88
2.56
2.24
1.79
1.19
0.48
-0.27
-0.98
-1.65
-2.37
-3.28
-4.52
-6.12
-7.96
-9.79
-11.27
-12.10
-12.12
-11.31
-9.81
-7.85
-5.68
-3.49
-1.43
0.43
2.05
3.36
4.35
4.97
5.28
5.38
5.44
5.68
6.17
6.93
7.79
8.55
9.06
9.26
9.22
9.10
9.03
9.02
9.04
8.94
8.65
8.14
7.51
6.83
6.13
5.42
4.60
3.62
2.50
1.38
0.43
-0.25
-0.71
-1.10
-1.62
-2.38
-3.36
-4.45
-5.55
-6.66
-7.85
-9.19
-10.66
-12.03
-12.99
-13.21
-12.51
-10.96
-8.83
-6.50
-4.30
-2.39
-0.78
0.60
1.88
3.08
4.16
5.01
5.61
6.01
6.37
6.90
7.64
8.51
9.27
9.69
9.66
9.22
8.52
7.72
6.92
6.12
5.35
4.62
4.02
3.64
3.50
3.49
3.44
3.11
2.34
1.12
-0.40
-1.97
-3.34
-4.35
-5.01
-5.43
-5.76
-6.15
-6.63
-7.24
-8.02
-8.98
-10.10
-11.21
-12.06
-12.38
-12.01
-10.94
-9.35
-7.39
-5.19
-2.84
-0.39
1.98
4.09
5.72
6.79
7.35
7.59
7.66
7.67
7.65
7.55
7.37
7.10
6.80
6.49
6.21
6.01
5.93
6.02
6.24
6.47
6.52
6.20
5.45
4.35
3.08
1.84
0.77
-0.12
-0.95
-1.80
-2.72
-3.68
-4.58
-5.34
-5.93
-6.39
-6.80
-7.28
-7.90
-8.71
-9.69
-10.78
-11.85
-12.73
-13.23
-13.17
-12.46
-11.08
-9.13
-6.82
-4.39
-2.05
0.04
1.83
3.27
4.35
5.04
5.33
5.31
5.12
4.91
4.78
4.77
4.78
4.72
4.48
4.09
3.60
3.16
2.91
2.96
3.34
3.98
4.71
5.27
5.42
4.99
4.00
2.64
1.21
-0.00
-0.87
-1.42
-1.84
-2.30
-2.94
-3.72
-4.56
-5.39
-6.26
-7.28
-8.58
-10.11
-11.62
-12.68
-12.91
-12.12
-10.45
-8.28
-6.08
-4.13
-2.47
-0.97
0.53
2.06
3.47
4.54
5.12
5.23
5.07
4.89
4.86
5.01
5.23
5.38
5.39
5.25
5.04
4.82
4.61
4.36
4.03
3.63
3.17
2.76
2.41
2.13
1.86
1.52
1.08
0.53
-0.09
-0.74
-1.37
-2.00
-2.65
-3.35
-4.17
-5.12
-6.29
-7.70
-9.34
-11.13
-12.87
-14.30
-15.18
-15.33
-14.70
-13.34
-11.40
-9.06
-6.54
-4.05
-1.84
-0.05
1.21
2.02
2.48
2.80
3.09
3.46
3.89
4.31
4.66
4.89
4.98
4.98
4.95
4.94
4.95
4.94
4.82
4.52
4.02
3.36
2.61
1.83
1.04
0.27
-0.44
-1.05
-1.51
-1.85
-2.15
-2.54
-3.10
-3.83
-4.67
-5.51
-6.32
-7.10
-7.89
-8.72
-9.52
-10.17
-10.54
-10.49
-9.92
-8.77
-7.11
-5.06
-2.87
-0.79
0.97
2.38
3.49
4.43
5.28
6.03
6.58
6.85
6.91
6.92
7.13
7.64
8.36
9.02
9.34
9.18
8.59
7.83
7.17
6.73
6.42
6.04
5.33
4.19
2.69
1.08
-0.37
-1.46
-2.14
-2.47
-2.63
-2.79
-3.11
-3.67
-4.47
-5.41
-6.41
-7.39
-8.35
-9.33
-10.38
-11.48
-12.56
-13.47
-14.04
-14.13
-13.65
-12.63
-11.17
-9.41
-7.49
-5.51
-3.56
-1.67
0.09
1.64
2.88
3.73
4.21
4.40
4.49
4.63
4.92
5.29
5.63
5.82
5.86
5.83
5.89
6.11
6.44
6.73
6.84
6.71
6.43
6.13
5.93
5.78
5.59
5.22
4.60
3.74
2.75
1.73
0.70
-0.32
-1.40
-2.61
-4.02
-5.68
-7.57
-9.58
-11.45
-12.91
-13.67
-13.58
-12.68
-11.13
-9.15
-6.96
-4.71
-2.50
-0.44
1.37
2.86
4.00
4.84
5.48
5.98
6.37
6.61
6.67
6.54
6.26
5.99
5.89
6.10
6.66
7.43
8.23
8.83
9.11
9.04
8.70
8.20
7.62
6.99
6.27
5.38
4.34
3.20
2.05
1.00
0.09
-0.71
-1.49
-2.37
-3.40
-4.59
-5.94
-7.38
-8.92
-10.61
-12.47
-14.43
-16.30
-17.72
-18.36
-17.96
-16.51
-14.20
-11.34
-8.31
-5.40
-2.80
-0.61
1.14
2.46
3.41
4.05
4.55
5.06
5.73
6.63
7.71
8.80
9.72
10.34
10.65
10.73
10.75
10.81
10.96
11.14
11.23
11.09
10.60
9.75
8.64
7.44
6.35
5.57
5.18
5.08
5.11
4.97
4.45
3.45
2.08
0.58
-0.76
-1.79
-2.55
-3.23
-4.12
-5.41
-7.17
-9.28
-11.51
-13.58
-15.23
-16.28
-16.61
-16.16
-14.98
-13.17
-10.94
-8.50
-6.04
-3.70
-1.57
0.30
1.90
3.24
4.39
5.42
6.39
7.33
8.20
8.98
9.61
10.07
10.38
10.53
10.52
10.34
9.96
9.41
8.72
7.93
7.07
6.21
5.41
4.70
4.11
3.65
3.22
2.75
2.16
1.39
0.46
-0.57
-1.63
-2.65
-3.59
-4.46
-5.34
-6.39
-7.74
-9.48
-11.50
-13.55
-15.25
-16.32
-16.61
-16.14
-15.09
-13.64
-11.92
-10.02
-8.00
-5.97
-4.02
-2.28
-0.78
0.48
1.56
2.53
3.42
4.21
4.92
5.52
6.05
6.50
6.86
7.07
7.06
6.81
6.33
5.70
5.03
4.46
4.05
3.79
3.62
3.49
3.33
3.16
3.03
2.91
2.75
2.43
1.84
0.93
-0.25
-1.56
-2.88
-4.14
-5.37
-6.62
-7.90
-9.09
-9.98
-10.32
-9.92
-8.79
-7.12
-5.14
-3.08
-1.01
1.11
3.36
5.67
7.84
9.54
10.50
10.69
10.29
9.66
9.16
9.00
9.16
9.50
9.84
10.12
10.29
10.38
10.38
10.23
9.89
9.36
8.68
7.89
7.02
6.07
4.98
3.74
2.33
0.77
-0.89
-2.59
-4.21
-5.63
-6.72
-7.51
-8.15
-8.94
-10.17
-11.97
-14.15
-16.23
-17.63
-17.93
-17.07
-15.34
-13.23
-11.21
-9.49
-8.03
-6.61
-4.99
-3.03
-0.76
1.62
3.88
5.78
7.16
8.02
8.44
8.62
8.71
8.77
8.80
8.69
8.38
7.84
7.15
6.37
5.59
4.85
4.16
3.53
2.94
2.31
1.59
0.73
-0.23
-1.17
-1.95
-2.51
-2.90
-3.32
-3.93
-4.88
-6.18
-7.74
-9.41
-11.02
-12.36
-13.23
-13.46
-12.93
-11.63
-9.70
-7.42
-5.10
-3.01
-1.30
0.04
1.12
2.10
3.08
4.08
5.03
5.85
6.49
7.00
7.51
8.13
8.87
9.64
10.29
10.72
10.95
11.09
11.25
11.42
11.48
11.22
10.43
9.05
7.21
5.15
3.17
1.46
0.07
-1.08
-2.20
-3.43
-4.82
-6.29
-7.67
-8.86
-9.84
-10.78
-11.89
-13.25
-14.72
-15.93
-16.49
-16.10
-14.77
-12.75
-10.37
-7.94
-5.61
-3.40
-1.32
0.58
2.22
3.55
4.57
5.37
6.07
6.79
7.52
8.25
8.94
9.54
10.07
10.53
10.92
11.18
11.26
11.09
10.67
10.07
9.41
8.83
8.35
7.89
7.31
6.46
5.24
3.71
2.02
0.30
-1.31
-2.79
-4.16
-5.50
-6.89
-8.37
-9.91
-11.41
-12.66
-13.41
-13.40
-12.44
-10.52
-7.85
-4.78
-1.74
0.98
3.19
4.92
6.29
7.39
8.25
8.84
9.10
9.04
8.79
8.51
8.35
8.38
8.53
8.68
8.76
8.73
8.64
8.59
8.58
8.57
8.42
7.98
7.15
5.90
4.36
2.74
1.27
0.09
-0.77
-1.43
-2.15
-3.14
-4.52
-6.27
-8.21
-10.18
-12.09
-13.94
-15.76
-17.45
-18.77
-19.37
-18.94
-17.35
-14.79
-11.63
-8.34
-5.28
-2.61
-0.32
1.69
3.48
5.02
6.26
7.12
7.62
7.84
7.87
7.81
7.72
7.61
7.50
7.45
7.52
7.76
8.15
8.61
9.04
9.35
9.48
9.42
9.15
8.64
7.88
6.86
5.62
4.20
2.63
0.91
-0.98
-3.04
-5.15
-7.13
-8.79
-10.03
-10.96
-11.80
-12.79
-13.99
-15.25
-16.22
-16.52
-15.91
-14.42
-12.23
-9.59
-6.70
-3.59
-0.31
3.05
6.19
8.75
10.38
11.00
10.82
10.33
9.98
10.07
10.56
11.19
11.65
11.78
11.65
11.45
11.34
11.34
11.35
11.25
11.06
10.91
10.98
11.34
11.87
12.29
12.30
11.72
10.54
8.89
6.95
4.84
2.65
0.46
-1.68
-3.67
-5.50
-7.20
-8.93
-10.84
-13.02
-15.45
-17.97
-20.31
-22.15
-23.21
-23.26
-22.27
-20.32
-17.68
-14.65
-11.55
-8.62
-6.00
-3.72
-1.73
-0.01
1.42
2.57
3.40
3.95
4.31
4.59
4.88
5.18
5.46
5.60
5.54
5.27
4.88
4.48
4.18
3.99
3.85
3.65
3.29
2.74
2.04
1.27
0.52
-0.15
-0.71
-1.15
-1.51
-1.79
-2.11
-2.53
-3.15
-3.98
-4.98
-6.05
-7.09
-8.07
-9.02
-10.01
-11.01
-11.94
-12.63
-12.95
-12.78
-12.09
-10.90
-9.22
-7.10
-4.66
-2.06
0.47
2.75
4.62
6.04
7.03
7.69
8.05
8.24
8.33
8.46
8.73
9.16
9.70
10.20
10.51
10.60
10.50
10.38
10.34
10.43
10.52
10.42
9.97
9.13
8.03
6.96
6.17
5.76
5.62
5.48
5.04
4.13
2.71
0.86
-1.28
-3.54
-5.71
-7.49
-8.59
-8.73
-7.81
-5.96
-3.47
-0.73
1.90
4.25
6.27
7.97
9.35
10.37
10.94
11.03
10.76
10.33
10.01
9.99
10.33
10.88
11.41
11.67
11.50
10.86
9.81
8.49
7.01
5.46
3.90
2.36
0.81
-0.82
-2.54
-4.34
-6.14
-7.80
-9.23
-10.39
-11.40
-12.42
-13.62
-15.01
-16.49
-17.82
-18.74
-19.08
-18.71
-17.61
-15.82
-13.43
-10.59
-7.55
-4.58
-1.92
0.27
1.94
3.12
3.89
4.33
4.49
4.44
4.26
4.06
3.98
4.08
4.41
4.90
5.44
5.89
6.13
6.10
5.83
5.39
4.89
4.40
3.92
3.41
2.82
2.15
1.45
0.81
0.23
-0.30
-0.90
-1.68
-2.75
-4.14
-5.88
-7.95
-10.31
-12.80
-15.14
-16.98
-17.99
-17.99
-17.05
-15.43
-13.45
-11.33
-9.18
-6.99
-4.77
-2.63
-0.71
0.86
2.10
3.12
4.10
5.13
6.18
7.16
8.01
8.73
9.38
10.00
10.56
10.98
11.20
11.22
11.11
10.93
10.65
10.15
9.30
8.09
6.65
5.21
4.03
3.14
2.45
1.70
0.70
-0.58
-2.06
-3.51
-4.78
-5.83
-6.72
-7.57
-8.46
-9.43
-10.47
-11.62
-12.86
-14.16
-15.34
-16.15
-16.31
-15.61
-14.00
-11.66
-8.91
-6.04
-3.35
-1.01
0.88
2.27
3.24
3.88
4.40
4.95
5.62
6.36
7.04
7.47
7.58
7.39
7.01
6.60
6.26
6.03
5.91
5.89
5.89
5.84
5.63
5.21
4.58
3.86
3.20
2.73
2.51
2.43
2.31
1.92
1.15
-0.01
-1.44
-2.97
-4.44
-5.74
-6.86
-7.79
-8.59
-9.32
-10.07
-10.88
-11.79
-12.71
-13.51
-13.97
-13.89
-13.12
-11.59
-9.40
-6.79
-4.05
-1.50
0.64
2.29
3.48
4.34
4.99
5.48
5.82
6.00
6.02
5.95
5.84
5.72
5.54
5.22
4.72
4.03
3.30
2.71
2.46
2.64
3.20
3.97
4.69
5.17
5.27
4.98
4.36
3.48
2.35
0.98
-0.62
-2.41
-4.24
-5.94
-7.42
-8.66
-9.74
-10.79
-11.88
-12.94
-13.80
-14.21
-13.97
-12.99
-11.30
-9.03
-6.38
-3.54
-0.72
1.92
4.23
6.13
7.60
8.62
9.24
9.51
9.53
9.40
9.25
9.20
9.32
9.58
9.94
10.26
10.45
10.44
10.19
9.68
8.93
7.98
6.90
5.79
4.74
3.79
2.92
2.05
1.07
-0.11
-1.53
-3.15
-4.87
-6.51
-7.93
-9.06
-9.95
-10.76
-11.68
-12.79
-14.04
-15.23
-16.11
-16.48
-16.25
-15.40
-14.01
-12.18
-10.07
-7.87
-5.83
-4.13
-2.82
-1.82
-0.99
-0.15
0.73
1.64
2.53
3.40
4.20
4.90
5.34
5.40
4.98
4.22
3.43
3.00
3.22
4.15
5.60
7.24
8.75
9.89
10.58
10.85
10.74
10.28
9.48
8.33
6.87
5.22
3.52
1.92
0.48
-0.83
-2.12
-3.52
-5.07
-6.73
-8.41
-10.01
-11.48
-12.79
-13.90
-14.70
-14.98
-14.57
-13.35
-11.40
-8.98
-6.44
-4.14
-2.27
-0.85
0.25
1.16
2.00
2.80
3.56
4.24
4.84
5.35
5.74
5.99
6.07
6.03
5.93
5.88
5.96
6.22
6.64
7.18
7.77
8.31
8.64
8.66
8.26
7.50
6.46
5.28
4.07
2.87
1.69
0.53
-0.56
-1.54
-2.44
-3.33
-4.31
-5.46
-6.79
-8.22
-9.66
-11.06
-12.41
-13.74
-14.99
-16.08
-16.83
-17.08
-16.72
-15.75
-14.23
-12.33
-10.25
-8.19
-6.29
-4.64
-3.24
-1.99
-0.82
0.35
1.53
2.65
3.66
4.50
5.18
5.72
6.13
6.44
6.66
6.87
7.09
7.38
7.76
8.18
8.55
8.78
8.81
8.61
8.23
7.71
7.13
6.50
5.81
5.01
4.05
2.89
1.54
0.12
-1.24
-2.46
-3.52
-4.49
-5.53
-6.81
-8.37
-10.19
-12.07
-13.77
-15.00
-15.53
-15.25
-14.17
-12.44
-10.26
-7.81
-5.23
-2.61
-0.08
2.27
4.30
5.94
7.12
7.91
8.37
8.62
8.72
8.69
8.51
8.12
7.51
6.69
5.70
4.58
3.36
2.03
0.56
-1.10
-2.94
-4.86
-6.72
-8.40
-9.86
-11.17
-12.49
-14.03
-15.95
-18.31
-21.09
-24.14
-27.38
-30.75
-34.24
-37.95
-41.90
-46.06
-50.24
-54.13
-57.38
-59.65
-60.66
-60.22
-58.22
-54.57
-49.22
-42.15
-33.43
-23.27
-11.99
-0.08
11.90
23.36
33.81
42.94
50.60
56.74
61.36
64.44
65.96
65.99
64.74
62.55
59.81
56.85
53.86
50.87
47.87
44.78
41.59
38.30
34.95
31.57
28.19
24.83
21.53
18.33
15.26
12.38
9.71
7.25
5.00
2.91
0.90
-1.05
-3.01
-5.00
-7.05
-9.23
-11.56
-14.01
-16.34
-18.22
-19.21
-18.99
-17.46
-14.87
-11.71
-8.54
-5.83
-3.76
-2.25
-1.04
0.12
1.41
2.81
4.22
5.51
6.59
7.48
8.27
9.00
9.70
10.26
10.58
10.57
10.29
9.89
9.52
9.27
9.08
8.84
8.35
7.60
6.63
5.63
4.76
4.10
3.59
3.10
2.50
1.76
0.90
0.02
-0.80
-1.57
-2.35
-3.26
-4.40
-5.75
-7.27
-8.85
-10.41
-11.93
-13.35
-14.56
-15.36
-15.52
-14.88
-13.46
-11.47
-9.18
-6.82
-4.50
-2.22
0.06
2.29
4.32
6.05
7.37
8.38
9.20
9.97
10.70
11.34
11.81
12.06
12.11
12.05
11.92
11.73
11.45
11.04
10.54
9.99
9.44
8.88
8.22
7.41
6.42
5.34
4.30
3.36
2.55
1.77
0.88
-0.19
-1.41
-2.72
-4.01
-5.27
-6.54
-7.85
-9.18
-10.48
-11.66
-12.77
-13.89
-15.16
-16.61
-18.06
-19.15
-19.50
-18.84
-17.17
-14.71
-11.81
-8.86
-6.16
-3.94
-2.28
-1.14
-0.33
0.42
1.31
2.41
3.59
4.66
5.44
5.93
6.24
6.53
6.90
7.29
7.59
7.71
7.70
7.69
7.80
8.06
8.37
8.56
8.47
8.03
7.29
6.41
5.53
4.73
4.02
3.36
2.67
1.91
1.05
0.12
-0.83
-1.77
-2.67
-3.53
-4.45
-5.56
-6.94
-8.61
-10.39
-12.00
-13.10
-13.45
-12.94
-11.63
-9.71
-7.37
-4.80
-2.19
0.28
2.45
4.22
5.57
6.62
7.45
8.20
8.85
9.32
9.57
9.53
9.29
8.97
8.72
8.63
8.71
8.85
8.95
8.91
8.68
8.31
7.84
7.36
6.90
6.49
6.13
5.81
5.50
5.08
4.45
3.53
2.32
0.94
-0.41
-1.55
-2.43
-3.14
-3.85
-4.71
-5.76
-6.95
-8.17
-9.38
-10.56
-11.71
-12.75
-13.44
-13.49
-12.65
-10.88
-8.35
-5.46
-2.67
-0.33
1.44
2.68
3.59
4.33
4.95
5.43
5.72
5.83
5.92
6.15
6.68
7.45
8.27
8.90
9.15
9.01
8.66
8.33
8.17
8.23
8.43
8.64
8.76
8.72
8.45
7.89
7.01
5.85
4.59
3.41
2.46
1.77
1.23
0.68
-0.01
-0.90
-1.96
-3.15
-4.41
-5.75
-7.13
-8.51
-9.80
-10.95
-11.99
-12.90
-13.64
-14.06
-13.93
-13.08
-11.50
-9.38
-7.05
-4.83
-2.91
-1.27
0.19
1.57
2.84
3.88
4.59
4.98
5.21
5.51
6.05
6.82
7.69
8.44
8.94
9.16
9.16
9.00
8.71
8.27
7.67
6.97
6.25
5.61
5.06
4.51
3.84
2.98
1.95
0.87
-0.15
-1.05
-1.83
-2.60
-3.42
-4.31
-5.18
-5.95
-6.57
-7.08
-7.66
-8.46
-9.62
-11.11
-12.74
-14.21
-15.24
-15.63
-15.37
-14.57
-13.43
-12.07
-10.57
-8.92
-7.17
-5.37
-3.70
-2.30
-1.22
-0.42
0.24
0.87
1.51
2.09
2.51
2.74
2.81
2.86
2.99
3.24
3.57
3.87
4.06
4.12
4.10
4.10
4.14
4.19
4.13
3.86
3.36
2.70
2.03
1.52
1.19
0.99
0.76
0.41
-0.08
-0.62
-1.10
-1.49
-1.87
-2.35
-3.02
-3.85
-4.78
-5.69
-6.56
-7.36
-8.09
-8.65
-8.87
-8.55
-7.60
-6.08
-4.16
-2.09
-0.07
1.74
3.28
4.46
5.22
5.56
5.52
5.28
5.00
4.85
4.92
5.20
5.64
6.12
6.59
7.00
7.33
7.57
7.74
7.84
7.85
7.72
7.38
6.80
6.05
5.28
4.66
4.28
4.08
3.89
3.50
2.80
1.83
0.72
-0.35
-1.27
-2.04
-2.74
-3.49
-4.32
-5.26
-6.26
-7.28
-8.25
-9.09
-9.71
-10.02
-9.94
-9.42
-8.50
-7.24
-5.81
-4.40
-3.20
-2.31
-1.74
-1.42
-1.24
-1.07
-0.83
-0.48
0.01
0.61
1.25
1.81
2.16
2.20
1.94
1.49
1.03
0.76
0.77
1.06
1.48
1.87
2.06
2.01
1.78
1.52
1.33
1.25
1.19
1.06
0.76
0.31
-0.18
-0.60
-0.90
-1.10
-1.32
-1.71
-2.34
-3.22
-4.27
-5.42
-6.55
-7.56
-8.38
-8.99
-9.38
-9.59
-9.63
-9.45
-8.95
-8.07
-6.83
-5.40
-4.00
-2.81
-1.87
-1.12
-0.40
0.38
1.23
2.06
2.77
3.30
3.70
4.03
4.36
4.69
4.97
5.12
5.11
4.96
4.74
4.52
4.36
4.27
4.22
4.14
3.94
3.55
2.95
2.19
1.31
0.38
-0.61
-1.64
-2.66
-3.60
-4.32
-4.76
-4.95
-5.01
-5.12
-5.40
-5.88
-6.49
-7.17
-7.87
-8.62
-9.45
-10.32
-11.09
-11.55
-11.53
-10.96
-9.88
-8.42
-6.76
-5.10
-3.56
-2.30
-1.35
-0.73
-0.32
-0.01
0.33
0.73
1.14
1.49
1.67
1.69
1.58
1.43
1.34
1.43
1.73
2.21
2.78
3.28
3.59
3.66
3.48
3.16
2.76
2.32
1.84
1.28
0.63
-0.07
-0.69
-1.12
-1.27
-1.12
-0.78
-0.41
-0.16
-0.14
-0.38
-0.83
-1.42
-2.10
-2.83
-3.56
-4.24
-4.76
-5.01
-4.92
-4.45
-3.63
-2.50
-1.14
0.30
1.68
2.83
3.66
4.14
4.38
4.50
4.56
4.61
4.61
4.56
4.49
4.45
4.50
4.66
4.90
5.13
5.28
5.26
5.03
4.61
4.07
3.52
3.06
2.75
2.60
2.57
2.58
2.57
2.50
2.30
1.97
1.45
0.80
0.09
-0.58
-1.18
-1.79
-2.53
-3.56
-4.93
-6.55
-8.22
-9.75
-10.99
-11.85
-12.30
-12.31
-11.85
-10.91
-9.54
-7.89
-6.14
-4.48
-3.00
-1.76
-0.72
0.13
0.82
1.34
1.70
1.92
2.04
2.10
2.10
2.05
2.02
2.04
2.20
2.51
2.90
3.28
3.54
3.67
3.74
3.85
4.07
4.32
4.48
4.38
3.94
3.20
2.27
1.22
0.13
-1.00
-2.14
-3.18
-4.02
-4.59
-4.93
-5.25
-5.82
-6.84
-8.33
-10.10
-11.80
-13.09
-13.69
-13.52
-12.63
-11.17
-9.32
-7.28
-5.24
-3.38
-1.83
-0.63
0.27
0.98
1.57
2.10
2.58
3.04
3.51
4.01
4.54
5.05
5.49
5.86
6.18
6.53
6.90
7.23
7.39
7.20
6.59
5.61
4.44
3.30
2.36
1.72
1.35
1.15
0.97
0.65
0.10
-0.74
-1.82
-3.05
-4.29
-5.41
-6.32
-7.05
-7.74
-8.55
-9.61
-10.91
-12.23
-13.26
-13.77
-13.64
-12.93
-11.75
-10.27
-8.57
-6.68
-4.69
-2.73
-0.97
0.44
1.48
2.22
2.78
3.26
3.72
4.19
4.65
5.11
5.62
6.19
6.85
7.56
8.27
8.88
9.30
9.52
9.55
9.46
9.32
9.10
8.75
8.20
7.46
6.63
5.91
5.41
5.13
4.88
4.43
3.63
2.49
1.16
-0.19
-1.51
-2.84
-4.26
-5.79
-7.26
-8.36
-8.78
-8.31
-6.95
-4.92
-2.56
-0.23
1.84
3.48
4.71
5.62
6.35
6.99
7.58
8.09
8.46
8.66
8.73
8.74
8.78
8.86
8.98
9.08
9.14
9.17
9.23
9.30
9.37
9.33
9.07
8.50
7.63
6.55
5.41
4.32
3.35
2.51
1.74
0.99
0.20
-0.68
-1.67
-2.76
-3.96
-5.22
-6.48
-7.70
-8.86
-10.00
-11.17
-12.37
-13.53
-14.46
-14.98
-14.95
-14.33
-13.21
-11.73
-10.03
-8.22
-6.36
-4.51
-2.70
-1.00
0.56
1.99
3.32
4.61
5.93
7.24
8.48
9.55
10.33
10.77
10.90
10.85
10.75
10.72
10.81
10.95
10.98
10.75
10.17
9.30
8.28
7.29
6.43
5.70
4.96
4.08
2.99
1.76
0.52
-0.55
-1.39
-2.03
-2.60
-3.23
-4.02
-5.03
-6.26
-7.67
-9.15
-10.62
-11.92
-12.88
-13.39
-13.33
-12.64
-11.33
-9.46
-7.19
-4.69
-2.23
0.02
1.91
3.36
4.37
4.99
5.30
5.39
5.40
5.41
5.50
5.70
5.96
6.23
6.48
6.70
6.91
7.16
7.45
7.73
7.92
7.88
7.49
6.68
5.55
4.25
3.00
1.93
1.09
0.38
-0.31
-1.08
-1.94
-2.84
-3.74
-4.62
-5.50
-6.44
-7.48
-8.74
-10.24
-11.99
-13.90
-15.72
-17.09
-17.69
-17.31
-15.97
-13.90
-11.41
-8.82
-6.31
-4.00
-1.91
-0.06
1.50
2.78
3.77
4.56
5.23
5.91
6.66
7.48
8.34
9.13
9.82
10.39
10.87
11.30
11.70
12.05
12.25
12.21
11.88
11.27
10.44
9.49
8.51
7.56
6.64
5.74
4.80
3.76
2.60
1.30
-0.12
-1.59
-3.02
-4.31
-5.42
-6.39
-7.33
-8.35
-9.47
-10.55
-11.30
-11.42
-10.70
-9.17
-7.09
-4.90
-2.92
-1.33
-0.06
1.09
2.34
3.74
5.20
6.52
7.52
8.16
8.54
8.84
9.21
9.65
10.10
10.47
10.71
10.91
11.19
11.65
12.23
12.74
12.92
12.55
11.57
10.15
8.54
7.01
5.72
4.67
3.74
2.83
1.83
0.75
-0.39
-1.58
-2.78
-3.99
-5.16
-6.23
-7.13
-7.90
-8.64
-9.55
-10.76
-12.27
-13.92
-15.38
-16.31
-16.48
-15.78
-14.26
-12.11
-9.56
-6.85
-4.26
-2.01
-0.25
0.99
1.82
2.44
3.09
3.92
4.93
6.02
7.01
7.74
8.16
8.30
8.28
8.25
8.34
8.62
9.05
9.54
9.93
10.10
10.01
9.68
9.21
8.68
8.13
7.54
6.85
6.03
5.04
3.94
2.77
1.62
0.54
-0.44
-1.32
-2.15
-3.00
-3.92
-4.96
-6.16
-7.58
-9.27
-11.22
-13.37
-15.48
-17.27
-18.37
-18.58
-17.81
-16.17
-13.89
-11.28
-8.61
-6.06
-3.76
-1.73
0.01
1.46
2.64
3.55
4.22
4.72
5.14
5.54
5.97
6.38
6.71
6.89
6.88
6.73
6.50
6.27
6.06
5.87
5.65
5.37
5.02
4.56
4.03
3.46
2.87
2.34
1.89
1.54
1.22
0.86
0.32
-0.45
-1.43
-2.54
-3.64
-4.66
-5.56
-6.41
-7.29
-8.27
-9.39
-10.60
-11.77
-12.69
-13.14
-12.89
-11.88
-10.21
-8.17
-6.14
-4.38
-2.98
-1.83
-0.70
0.55
1.90
3.19
4.20
4.81
5.13
5.36
5.72
6.31
7.02
7.68
8.12
8.32
8.40
8.50
8.71
8.95
9.04
8.80
8.19
7.33
6.42
5.68
5.20
4.91
4.63
4.20
3.52
2.59
1.51
0.39
-0.73
-1.87
-3.11
-4.52
-6.12
-7.82
-9.42
-10.66
-11.34
-11.33
-10.68
-9.52
-8.08
-6.53
-4.95
-3.34
-1.66
0.12
1.94
3.65
5.09
6.13
6.75
7.05
7.20
7.36
7.59
7.84
7.98
7.89
7.57
7.10
6.65
6.32
6.11
5.93
5.69
5.36
4.97
4.60
4.28
3.97
3.56
2.92
1.97
0.74
-0.65
-2.06
-3.30
-4.29
-5.03
-5.61
-6.19
-6.92
-7.91
-9.13
-10.43
-11.56
-12.30
-12.45
-11.90
-10.72
-9.04
-7.12
-5.21
-3.55
-2.26
-1.37
-0.77
-0.35
0.06
0.58
1.26
2.12
3.11
4.11
4.97
5.55
5.78
5.72
5.51
5.28
5.11
4.97
4.76
4.40
3.90
3.36
2.95
2.76
2.78
2.85
2.79
2.43
1.72
0.72
-0.51
-1.85
-3.28
-4.79
-6.34
-7.87
-9.29
-10.53
-11.58
-12.47
-13.24
-13.89
-14.27
-14.21
-13.51
-12.12
-10.22
-8.12
-6.19
-4.69
-3.66
-2.90
-2.16
-1.25
-0.16
0.97
1.93
2.58
2.88
2.97
2.99
3.07
3.24
3.48
3.68
3.77
3.71
3.51
3.25
2.99
2.77
2.57
2.32
1.91
1.27
0.41
-0.62
-1.73
-2.83
-3.84
-4.71
-5.44
-6.05
-6.62
-7.25
-8.08
-9.15
-10.46
-11.89
-13.29
-14.48
-15.31
-15.74
-15.74
-15.41
-14.87
-14.29
-13.81
-13.58
-13.63
-13.97
-14.60
-15.49
-16.62
-17.94
-19.37
-20.83
-22.26
-23.64
-25.04
-26.54
-28.23
-30.12
-32.13
-34.05
-35.58
-36.37
-36.05
-34.29
-30.89
-25.78
-19.12
-11.24
-2.64
6.12
14.53
22.18
28.78
34.17
38.22
40.86
42.08
41.95
40.70
38.69
36.38
34.17
32.37
31.04
30.10
29.39
28.76
28.12
27.44
26.67
25.80
24.86
23.93
23.15
22.67
22.50
22.54
22.54
22.28
21.63
20.56
19.13
17.44
15.53
13.43
11.24
9.12
7.27
5.89
5.05
4.71
4.72
4.86
4.91
4.74
4.28
3.59
2.83
2.21
1.91
2.02
2.48
3.08
3.56
3.62
3.05
1.76
-0.22
-2.66
-5.24
-7.56
-9.26
-10.15
-10.22
-9.63
-8.66
-7.53
-6.37
-5.22
-4.06
-2.91
-1.84
-0.96
-0.32
0.15
0.67
1.42
2.47
3.71
4.87
5.61
5.76
5.35
4.61
3.81
3.14
2.66
2.28
1.88
1.38
0.78
0.14
-0.54
-1.26
-2.05
-2.93
-3.88
-4.84
-5.73
-6.47
-7.02
-7.42
-7.74
-8.15
-8.83
-9.92
-11.46
-13.33
-15.29
-17.01
-18.22
-18.73
-18.51
-17.69
-16.37
-14.70
-12.75
-10.60
-8.35
-6.14
-4.15
-2.49
-1.23
-0.32
0.35
0.91
1.48
2.14
2.90
3.75
4.63
5.45
6.16
6.66
6.96
7.09
7.12
7.18
7.32
7.57
7.86
8.06
8.05
7.74
7.10
6.19
5.12
4.01
2.91
1.86
0.86
-0.06
-0.93
-1.77
-2.69
-3.79
-5.13
-6.66
-8.20
-9.55
-10.61
-11.34
-11.86
-12.18
-12.21
-11.76
-10.62
-8.78
-6.45
-4.00
-1.74
0.15
1.72
3.06
4.28
5.30
6.03
6.39
6.41
6.28
6.17
6.23
6.49
6.92
7.44
7.96
8.43
8.74
8.79
8.50
7.86
6.93
5.90
4.98
4.36
4.12
4.16
4.28
4.24
3.86
3.12
2.14
1.11
0.23
-0.46
-1.04
-1.69
-2.61
-3.88
-5.47
-7.26
-9.00
-10.44
-11.35
-11.56
-11.04
-9.86
-8.23
-6.40
-4.60
-3.00
-1.66
-0.54
0.45
1.42
2.44
3.51
4.54
5.41
6.02
6.34
6.46
6.54
6.74
7.17
7.81
8.51
9.10
9.44
9.43
9.09
8.47
7.66
6.73
5.79
4.94
4.26
3.77
3.43
3.10
2.63
1.90
0.89
-0.33
-1.59
-2.79
-3.90
-5.00
-6.23
-7.67
-9.35
-11.10
-12.71
-13.94
-14.58
-14.52
-13.71
-12.21
-10.15
-7.79
-5.46
-3.46
-1.96
-0.94
-0.19
0.55
1.50
2.65
3.90
4.99
5.79
6.25
6.47
6.57
6.67
6.82
6.99
7.15
7.23
7.21
7.11
6.94
6.73
6.49
6.20
5.82
5.36
4.83
4.29
3.79
3.29
2.72
1.97
0.99
-0.18
-1.43
-2.68
-3.84
-4.94
-6.03
-7.18
-8.43
-9.85
-11.44
-13.15
-14.82
-16.18
-16.89
-16.74
-15.66
-13.83
-11.54
-9.12
-6.83
-4.81
-3.16
-1.91
-1.04
-0.49
-0.13
0.22
0.69
1.27
1.88
2.39
2.76
3.01
3.20
3.42
3.69
3.98
4.30
4.67
5.12
5.62
6.07
6.31
6.21
5.78
5.12
4.41
3.78
3.25
2.74
2.18
1.55
0.89
0.23
-0.42
-1.17
-2.14
-3.40
-4.91
-6.55
-8.16
-9.60
-10.82
-11.78
-12.45
-12.75
-12.59
-11.88
-10.60
-8.85
-6.81
-4.66
-2.59
-0.76
0.73
1.85
2.59
2.98
3.13
3.17
3.25
3.44
3.77
4.21
4.74
5.34
6.04
6.79
7.55
8.21
8.69
8.96
9.03
8.95
8.75
8.43
7.94
7.21
6.23
5.02
3.72
2.53
1.62
1.04
0.68
0.28
-0.44
-1.67
-3.43
-5.55
-7.76
-9.74
-11.24
-12.11
-12.26
-11.67
-10.38
-8.51
-6.24
-3.81
-1.50
0.49
2.03
3.13
3.91
4.54
5.15
5.80
6.46
7.04
7.47
7.74
7.92
8.07
8.27
8.56
8.92
9.31
9.61
9.71
9.49
8.91
8.01
6.91
5.78
4.74
3.83
3.03
2.25
1.43
0.55
-0.40
-1.40
-2.46
-3.61
-4.92
-6.45
-8.20
-10.10
-12.00
-13.71
-15.04
-15.85
-16.05
-15.63
-14.60
-13.06
-11.15
-9.00
-6.82
-4.78
-2.98
-1.41
-0.02
1.31
2.64
3.93
5.08
5.95
6.47
6.68
6.74
6.83
7.05
7.41
7.79
8.05
8.13
8.05
7.95
7.91
7.95
7.96
7.80
7.37
6.67
5.83
4.99
4.22
3.49
2.65
1.56
0.15
-1.51
-3.23
-4.83
-6.19
-7.36
-8.50
-9.82
-11.42
-13.26
-15.16
-16.82
-17.98
-18.43
-18.08
-16.89
-14.94
-12.38
-9.46
-6.49
-3.78
-1.53
0.22
1.60
2.83
4.10
5.47
6.90
8.23
9.32
10.08
10.55
10.78
10.89
10.93
10.93
10.89
10.81
10.71
10.62
10.48
10.21
9.68
8.78
7.55
6.12
4.71
3.48
2.47
1.51
0.38
-1.09
-2.88
-4.76
-6.43
-7.63
-8.33
-8.74
-9.21
-10.07
-11.41
-13.08
-14.72
-15.90
-16.31
-15.82
-14.52
-12.61
-10.33
-7.88
-5.42
-3.05
-0.90
0.95
2.44
3.56
4.39
5.04
5.62
6.19
6.78
7.33
7.77
8.06
8.19
8.17
8.04
7.83
7.58
7.32
7.08
6.86
6.61
6.29
5.82
5.16
4.31
3.27
2.11
0.82
-0.53
-1.89
-3.19
-4.36
-5.37
-6.28
-7.18
-8.11
-9.06
-9.90
-10.50
-10.70
-10.46
-9.76
-8.59
-6.96
-4.88
-2.49
0.01
2.33
4.25
5.70
6.76
7.59
8.28
8.84
9.22
9.40
9.45
9.53
9.80
10.33
11.06
11.79
12.35
12.58
12.44
11.92
11.07
9.98
8.74
7.52
6.46
5.68
5.18
4.86
4.51
3.92
3.00
1.77
0.37
-1.00
-2.23
-3.34
-4.42
-5.60
-6.97
-8.51
-10.16
-11.80
-13.29
-14.49
-15.20
-15.27
-14.55
-13.08
-10.98
-8.53
-6.02
-3.69
-1.64
0.12
1.68
3.12
4.51
5.86
7.09
8.12
8.91
9.46
9.84
10.17
10.48
10.70
10.74
10.48
9.94
9.27
8.68
8.32
8.21
8.19
8.03
7.52
6.60
5.43
4.26
3.35
2.82
2.59
2.41
1.98
1.13
-0.18
-1.77
-3.41
-4.92
-6.18
-7.24
-8.21
-9.20
-10.30
-11.53
-12.88
-14.20
-15.31
-15.93
-15.87
-15.02
-13.46
-11.36
-8.98
-6.54
-4.18
-2.00
-0.05
1.59
2.89
3.87
4.60
5.16
5.65
6.11
6.55
6.98
7.44
7.95
8.51
9.04
9.41
9.50
9.27
8.77
8.14
7.52
6.94
6.39
5.81
5.17
4.46
3.73
3.04
2.39
1.75
1.08
0.33
-0.52
-1.51
-2.62
-3.82
-5.03
-6.20
-7.25
-8.20
-9.12
-10.14
-11.36
-12.80
-14.36
-15.84
-17.00
-17.61
-17.52
-16.73
-15.29
-13.34
-11.05
-8.56
-6.02
-3.61
-1.46
0.27
1.54
2.40
2.99
3.44
3.85
4.23
4.54
4.79
5.03
5.35
5.86
6.52
7.25
7.84
8.20
8.27
8.16
8.01
7.91
7.92
7.93
7.82
7.48
6.88
6.04
5.04
3.95
2.81
1.63
0.45
-0.68
-1.67
-2.49
-3.17
-3.79
-4.51
-5.45
-6.62
-7.93
-9.18
-10.17
-10.70
-10.67
-10.05
-8.93
-7.43
-5.71
-3.91
-2.14
-0.44
1.18
2.70
4.07
5.20
5.99
6.38
6.46
6.41
6.47
6.84
7.53
8.41
9.25
9.87
10.20
10.32
10.38
10.53
10.78
11.01
11.07
10.84
10.32
9.58
8.75
7.90
7.03
6.12
5.13
4.04
2.88
1.66
0.47
-0.67
-1.74
-2.78
-3.82
-4.91
-6.06
-7.29
-8.58
-9.92
-11.31
-12.71
-14.03
-15.11
-15.75
-15.79
-15.12
-13.78
-11.89
-9.70
-7.43
-5.29
-3.40
-1.78
-0.39
0.83
1.90
2.83
3.63
4.27
4.82
5.34
5.89
6.48
7.02
7.41
7.53
7.37
7.02
6.62
6.32
6.17
6.13
6.07
5.84
5.34
4.61
3.76
2.97
2.38
1.97
1.65
1.25
0.67
-0.12
-1.04
-1.97
-2.86
-3.70
-4.57
-5.54
-6.66
-7.99
-9.54
-11.29
-13.11
-14.80
-16.06
-16.63
-16.33
-15.23
-13.50
-11.41
-9.21
-7.00
-4.85
-2.77
-0.84
0.85
2.21
3.25
4.04
4.72
5.35
5.92
6.35
6.55
6.48
6.23
5.95
5.76
5.71
5.76
5.81
5.78
5.63
5.36
4.96
4.37
3.53
2.42
1.08
-0.36
-1.80
-3.18
-4.60
-6.15
-7.93
-9.88
-11.82
-13.47
-14.55
-14.95
-14.68
-13.91
-12.85
-11.69
-10.56
-9.50
-8.50
-7.46
-6.36
-5.10
-3.62
-1.89
0.12
2.33
4.56
6.53
8.01
8.80
8.92
8.56
8.01
7.51
7.18
7.01
6.88
6.68
6.39
6.04
5.69
5.35
5.07
4.87
4.83
4.99
5.37
5.85
6.24
6.34
6.03
5.32
4.35
3.27
2.24
1.32
0.52
-0.21
-0.92
-1.67
-2.50
-3.42
-4.37
-5.27
-6.08
-6.84
-7.62
-8.54
-9.59
-10.66
-11.51
-11.86
-11.54
-10.49
-8.81
-6.68
-4.32
-1.94
0.25
2.13
3.63
4.75
5.56
6.18
6.68
7.10
7.45
7.71
7.88
7.98
8.06
8.18
8.35
8.54
8.70
8.77
8.67
8.37
7.86
7.17
6.36
5.50
4.67
3.92
3.26
2.64
1.96
1.14
0.10
-1.15
-2.54
-3.96
-5.29
-6.50
-7.62
-8.74
-10.00
-11.44
-13.00
-14.50
-15.72
-16.44
-16.50
-15.84
-14.48
-12.52
-10.14
-7.55
-4.99
-2.69
-0.76
0.77
1.98
2.99
3.93
4.86
5.81
6.77
7.68
8.53
9.27
9.88
10.36
10.69
10.92
11.04
11.04
10.91
10.65
10.26
9.77
9.19
8.53
7.76
6.83
5.75
4.54
3.29
2.10
1.02
0.08
-0.80
-1.68
-2.60
-3.56
-4.53
-5.53
-6.59
-7.84
-9.37
-11.19
-13.16
-15.06
-16.58
-17.46
-17.54
-16.77
-15.21
-13.01
-10.39
-7.60
-4.84
-2.27
0.03
2.05
3.78
5.19
6.29
7.12
7.84
8.71
9.96
11.68
13.77
15.88
17.61
18.57
18.54
17.50
15.63
13.18
10.42
7.60
4.88
2.28
-0.19
-2.58
-4.90
-7.10
-9.15
-11.05
-12.86
-14.71
-16.68
-18.77
-20.92
-23.04
-25.08
-27.11
-29.25
-31.61
-34.23
-37.05
-39.96
-42.89
-45.79
-48.62
-51.27
-53.54
-55.15
-55.92
-55.80
-54.94
-53.66
-52.17
-50.51
-48.41
-45.39
-40.98
-34.93
-27.32
-18.57
-9.23
0.24
9.55
18.60
27.32
35.53
42.92
49.12
53.79
56.74
57.96
57.58
55.85
53.06
49.57
45.80
42.14
38.99
36.56
34.81
33.42
31.84
29.48
25.98
21.36
16.12
11.00
6.74
3.76
2.09
1.47
1.62
2.40
3.91
6.31
9.65
13.71
18.03
22.07
25.39
27.78
29.25
29.96
30.05
29.57
28.48
26.75
24.44
21.73
18.91
16.25
13.91
11.94
10.27
8.80
7.49
6.32
5.33
4.52
3.90
3.42
3.05
2.76
2.50
2.17
1.70
1.04
0.24
-0.59
-1.36
-2.06
-2.76
-3.57
-4.57
-5.74
-6.97
-8.14
-9.18
-10.17
-11.26
-12.65
-14.41
-16.47
-18.59
-20.38
-21.49
-21.67
-20.84
-19.11
-16.70
-13.90
-10.99
-8.20
-5.68
-3.50
-1.64
-0.03
1.44
2.87
4.29
5.65
6.85
7.79
8.44
8.82
9.06
9.24
9.46
9.73
10.01
10.24
10.36
10.31
10.08
9.66
9.07
8.32
7.48
6.58
5.69
4.84
4.05
3.31
2.65
2.03
1.40
0.68
-0.22
-1.39
-2.86
-4.58
-6.44
-8.36
-10.30
-12.27
-14.33
-16.42
-18.33
-19.75
-20.31
-19.78
-18.18
-15.77
-12.96
-10.14
-7.53
-5.16
-2.93
-0.79
1.27
3.17
4.80
6.14
7.23
8.15
8.94
9.62
10.15
10.50
10.68
10.75
10.77
10.80
10.84
10.88
10.90
10.87
10.74
10.48
10.05
9.47
8.76
7.96
7.09
6.17
5.20
4.17
3.09
1.92
0.65
-0.75
-2.22
-3.65
-4.88
-5.81
-6.49
-7.09
-7.85
-8.94
-10.41
-12.18
-14.10
-16.07
-17.97
-19.67
-20.97
-21.55
-21.13
-19.59
-17.05
-13.86
-10.47
-7.27
-4.47
-2.07
0.03
1.88
3.46
4.64
5.29
5.44
5.26
5.05
5.08
5.46
6.12
6.87
7.54
8.07
8.53
9.00
9.53
10.03
10.29
10.11
9.43
8.31
6.97
5.65
4.52
3.60
2.82
2.05
1.22
0.33
-0.58
-1.44
-2.25
-3.03
-3.80
-4.58
-5.34
-6.07
-6.83
-7.75
-8.95
-10.44
-12.06
-13.47
-14.27
-14.14
-12.97
-10.91
-8.23
-5.31
-2.43
0.25
2.59
4.54
6.03
7.05
7.65
7.97
8.20
8.48
8.92
9.48
10.03
10.46
10.67
10.66
10.48
10.18
9.83
9.45
9.10
8.79
8.53
8.23
7.78
7.07
6.08
4.90
3.70
2.61
1.73
1.02
0.34
-0.46
-1.49
-2.76
-4.16
-5.55
-6.84
-8.00
-9.13
-10.40
-11.96
-13.81
-15.79
-17.53
-18.66
-18.87
-18.08
-16.43
-14.23
-11.77
-9.29
-6.92
-4.69
-2.62
-0.74
0.93
2.40
3.75
5.11
6.53
7.91
9.04
9.63
9.51
8.78
7.80
7.02
6.82
7.34
8.38
9.59
10.59
11.12
11.15
10.76
10.10
9.29
8.39
7.38
6.25
4.96
3.55
2.08
0.63
-0.69
-1.86
-2.87
-3.80
-4.72
-5.67
-6.72
-7.91
-9.33
-11.06
-13.11
-15.31
-17.38
-18.92
-19.56
-19.08
-17.52
-15.12
-12.25
-9.30
-6.53
-4.13
-2.14
-0.52
0.76
1.79
2.61
3.30
3.96
4.68
5.53
6.53
7.62
8.63
9.40
9.81
9.89
9.78
9.61
9.51
9.41
9.18
8.64
7.72
6.45
5.00
3.59
2.37
1.41
0.64
-0.10
-0.94
-1.97
-3.15
-4.34
-5.39
-6.18
-6.72
-7.13
-7.60
-8.30
-9.34
-10.73
-12.39
-14.15
-15.76
-16.92
-17.31
-16.74
-15.15
-12.74
-9.87
-6.97
-4.40
-2.34
-0.79
0.43
1.53
2.65
3.85
5.01
5.99
6.64
6.91
6.91
6.84
6.91
7.19
7.63
8.07
8.33
8.32
8.05
7.62
7.09
6.51
5.88
5.19
4.53
3.98
3.61
3.40
3.20
2.80
2.01
0.83
-0.58
-1.97
-3.12
-3.95
-4.61
-5.34
-6.37
-7.80
-9.54
-11.31
-12.78
-13.63
-13.62
-12.68
-10.84
-8.24
-5.16
-1.92
1.09
3.55
5.24
6.15
6.47
6.53
6.64
7.00
7.66
8.46
9.21
9.73
9.95
9.90
9.66
9.31
8.92
8.51
8.13
7.79
7.49
7.22
6.87
6.38
5.72
4.93
4.15
3.50
2.99
2.56
2.05
1.28
0.17
-1.20
-2.66
-4.00
-5.05
-5.81
-6.41
-7.07
-7.97
-9.19
-10.65
-12.12
-13.28
-13.87
-13.73
-12.85
-11.36
-9.47
-7.42
-5.42
-3.59
-1.99
-0.58
0.67
1.80
2.82
3.73
4.57
5.43
6.37
7.46
8.64
9.73
10.54
10.92
10.82
10.35
9.74
9.18
8.78
8.54
8.32
7.97
7.39
6.56
5.54
4.43
3.29
2.22
1.24
0.40
-0.26
-0.76
-1.16
-1.61
-2.27
-3.27
-4.67
-6.46
-8.58
-10.92
-13.29
-15.48
-17.19
-18.14
-18.14
-17.19
-15.46
-13.28
-10.95
-8.70
-6.57
-4.52
-2.47
-0.41
1.58
3.40
4.92
6.13
7.01
7.62
7.97
8.09
8.04
7.88
7.72
7.62
7.63
7.73
7.86
7.97
8.02
7.96
7.76
7.35
6.69
5.77
4.67
3.51
2.43
1.48
0.67
-0.07
-0.84
-1.70
-2.62
-3.55
-4.43
-5.19
-5.88
-6.60
-7.47
-8.62
-10.08
-11.77
-13.53
-15.15
-16.35
-16.95
-16.77
-15.78
-14.06
-11.76
-9.14
-6.49
-4.05
-2.00
-0.43
0.72
1.58
2.27
2.89
3.47
4.01
4.43
4.73
4.87
4.90
4.85
4.81
4.88
5.06
5.36
5.67
5.88
5.90
5.68
5.30
4.83
4.33
3.81
3.26
2.69
2.15
1.68
1.35
1.10
0.85
0.45
-0.17
-1.04
-2.06
-3.13
-4.20
-5.26
-6.35
-7.49
-8.62
-9.56
-10.07
-9.94
-9.02
-7.40
-5.25
-2.88
-0.57
1.46
3.14
4.49
5.58
6.47
7.17
7.64
7.85
7.82
7.67
7.59
7.76
8.29
9.15
10.12
10.95
11.42
11.42
10.94
10.16
9.23
8.28
7.38
6.55
5.78
5.09
4.46
3.86
3.20
2.36
1.21
-0.28
-2.06
-3.90
-5.54
-6.74
-7.44
-7.73
-7.83
-8.02
-8.49
-9.24
-10.14
-10.95
-11.42
-11.34
-10.63
-9.31
-7.52
-5.48
-3.43
-1.59
-0.09
1.03
1.81
2.32
2.63
2.86
3.10
3.45
3.96
4.61
5.28
5.84
6.18
6.31
6.32
6.32
6.41
6.61
6.92
7.31
7.72
8.08
8.26
8.13
7.59
6.64
5.46
4.23
3.16
2.28
1.52
0.68
-0.39
-1.73
-3.24
-4.74
-6.07
-7.15
-8.09
-9.07
-10.25
-11.68
-13.21
-14.58
-15.48
-15.73
-15.27
-14.19
-12.63
-10.74
-8.65
-6.49
-4.40
-2.48
-0.80
0.67
1.97
3.11
4.03
4.65
4.94
4.92
4.75
4.59
4.57
4.72
4.99
5.27
5.51
5.71
5.86
5.97
5.98
5.79
5.31
4.50
3.41
2.15
0.88
-0.28
-1.27
-2.11
-2.86
-3.64
-4.55
-5.66
-7.01
-8.61
-10.44
-12.48
-14.68
-16.98
-19.33
-21.67
-23.94
-26.09
-28.03
-29.74
-31.15
-32.23
-32.96
-33.30
-33.28
-32.96
-32.47
-32.03
-31.83
-32.03
-32.66
-33.65
-34.85
-36.11
-37.29
-38.26
-38.79
-38.56
-37.17
-34.23
-29.55
-23.18
-15.38
-6.58
2.78
12.24
21.41
29.92
37.41
43.65
48.50
51.94
54.04
54.90
54.62
53.32
51.14
48.27
44.95
41.38
37.72
34.08
30.55
27.21
24.11
21.26
18.59
16.01
13.45
10.88
8.34
6.00
4.01
2.53
1.66
1.49
2.03
3.19
4.79
6.53
8.09
9.20
9.78
9.92
9.87
9.84
9.94
10.13
10.21
10.00
9.37
8.38
7.20
6.09
5.24
4.81
4.81
5.17
5.74
6.35
6.87
7.22
7.36
7.29
7.01
6.51
5.78
4.85
3.79
2.67
1.56
0.47
-0.60
-1.69
-2.85
-4.10
-5.44
-6.85
-8.28
-9.69
-11.03
-12.23
-13.23
-13.97
-14.35
-14.30
-13.72
-12.57
-10.86
-8.73
-6.42
-4.16
-2.15
-0.52
0.71
1.63
2.36
3.04
3.75
4.50
5.26
5.92
6.36
6.51
6.38
6.05
5.64
5.29
5.09
5.08
5.26
5.57
5.91
6.17
6.23
6.05
5.62
5.02
4.28
3.42
2.42
1.24
-0.15
-1.64
-3.11
-4.43
-5.54
-6.50
-7.44
-8.50
-9.76
-11.21
-12.69
-14.04
-15.05
-15.55
-15.43
-14.64
-13.24
-11.34
-9.12
-6.78
-4.54
-2.54
-0.89
0.38
1.30
1.97
2.50
3.00
3.48
3.92
4.21
4.33
4.25
4.06
3.89
3.83
3.89
4.06
4.27
4.47
4.62
4.69
4.63
4.41
3.99
3.37
2.54
1.51
0.30
-1.07
-2.54
-4.01
-5.35
-6.45
-7.30
-8.01
-8.77
-9.73
-11.01
-12.53
-14.10
-15.43
-16.26
-16.40
-15.79
-14.49
-12.62
-10.37
-7.94
-5.52
-3.27
-1.31
0.30
1.59
2.60
3.44
4.18
4.87
5.54
6.22
6.89
7.51
8.02
8.36
8.51
8.51
8.46
8.46
8.56
8.74
8.88
8.79
8.37
7.59
6.50
5.18
3.72
2.15
0.45
-1.35
-3.20
-4.95
-6.52
-7.86
-9.06
-10.21
-11.39
-12.52
-13.37
-13.67
-13.19
-11.87
-9.87
-7.40
-4.74
-2.12
0.39
2.68
4.71
6.38
7.62
8.42
8.86
9.09
9.27
9.50
9.78
10.02
10.16
10.20
10.24
10.43
10.86
11.46
12.06
12.36
12.20
11.57
10.63
9.61
8.67
7.81
6.92
5.79
4.28
2.42
0.36
-1.64
-3.36
-4.67
-5.61
-6.38
-7.25
-8.47
-10.11
-12.05
-13.98
-15.51
-16.29
-16.16
-15.17
-13.49
-11.36
-8.96
-6.43
-3.87
-1.44
0.71
2.44
3.73
4.64
5.37
6.08
6.81
7.51
8.00
8.19
8.06
7.71
7.31
7.03
6.90
6.91
6.95
6.91
6.75
6.52
6.31
6.13
5.95
5.63
5.04
4.08
2.78
1.27
-0.35
-1.99
-3.67
-5.40
-7.16
-8.88
-10.50
-12.01
-13.47
-14.96
-16.46
-17.78
-18.61
-18.67
-17.82
-16.17
-14.04
-11.79
-9.66
-7.76
-6.04
-4.42
-2.87
-1.47
-0.30
0.54
1.05
1.31
1.46
1.68
2.16
3.05
4.43
6.31
8.61
11.16
13.76
16.18
18.26
19.98
21.40
22.73
24.14
25.75
27.51
29.28
30.94
32.51
34.18
36.18
38.59
41.12
43.09
43.63
42.02
38.05
32.07
24.93
17.64
11.06
5.73
1.89
-0.46
-1.39
-1.02
0.38
2.41
4.48
6.00
6.55
6.04
4.75
3.18
1.80
0.86
0.31
-0.19
-0.97
-2.26
-4.04
-6.04
-7.99
-9.63
-10.92
-11.94
-12.89
-13.97
-15.29
-16.86
-18.55
-20.20
-21.64
-22.89
-24.13
-25.60
-27.57
-30.06
-32.93
-35.82
-38.35
-40.22
-41.24
-41.28
-40.27
-38.18
-35.09
-31.29
-27.20
-23.32
-20.01
-17.36
-15.16
-13.04
-10.64
-7.78
-4.58
-1.43
1.19
2.81
3.22
2.47
0.89
-1.13
-3.25
-5.36
-7.52
-9.80
-12.19
-14.47
-16.39
-17.78
-18.76
-19.64
-20.72
-22.08
-23.53
-24.68
-25.14
-24.73
-23.50
-21.54
-18.84
-15.19
-10.29
-3.93
3.78
12.42
21.39
30.09
38.07
45.17
51.33
56.61
61.03
64.52
67.00
68.32
68.35
67.08
64.57
61.08
56.94
52.54
48.13
43.77
39.23
34.05
27.82
20.30
11.66
2.49
-6.37
-14.06
-20.00
-23.98
-26.19
-27.05
-26.99
-26.31
-25.10
-23.32
-20.91
-17.90
-14.50
-11.08
-8.11
-6.12
-5.55
-6.58
-8.90
-11.72
-13.79
-13.91
-11.48
-6.98
-2.04
1.21
0.99
-3.20
-10.31
-18.12
-24.38
-27.81
-28.68
-28.53
-29.30
-32.35
-37.92
-45.18
-52.94
-60.38
-67.51
-75.01
-83.61
-93.39
-103.42
-112.05
-117.57
-118.93
-116.21
-110.31
-102.26
-92.61
-81.20
-67.54
-51.42
-33.38
-14.51
4.20
22.64
41.87
63.34
87.67
113.54
137.59
155.60
164.49
163.77
155.54
143.08
128.79
113.00
94.48
72.44
48.50
27.33
14.99
16.00
30.65
54.39
79.59
98.74
107.51
105.91
97.34
86.23
75.77
66.82
58.42
49.29
39.26
29.84
23.50
22.25
26.41
34.23
42.57
48.36
49.91
47.46
42.47
36.59
30.73
24.96
19.26
14.22
11.16
11.38
15.14
20.93
25.93
27.02
22.19
11.22
-4.41
-22.33
-40.18
-56.13
-69.04
-78.16
-82.79
-82.18
-75.62
-62.97
-45.03
-23.80
-2.05
17.63
33.89
47.20
59.47
72.90
88.53
105.67
122.27
136.05
145.54
150.38
150.77
146.67
137.48
122.46
101.55
75.69
46.62
15.94
-15.65
-48.31
-82.14
-115.99
-147.02
-171.47
-186.42
-191.53
-189.34
-183.98
-178.94
-175.24
-171.23
-164.15
-152.26
-136.13
-118.41
-102.15
-89.20
-79.58
-72.34
-66.88
-63.86
-64.89
-71.21
-82.50
-96.51
-109.86
-119.54
-124.02
-123.56
-119.55
-113.57
-106.53
-98.65
-89.79
-79.90
-69.30
-58.59
-48.25
-38.45
-29.03
-19.78
-10.70
-2.11
5.54
12.00
17.50
22.76
28.70
35.99
44.75
54.49
64.40
73.70
81.93
88.99
94.84
99.33
102.05
102.53
100.44
95.90
89.50
82.20
75.04
68.95
64.53
61.96
60.97
60.84
60.51
58.86
55.15
49.31
42.11
34.98
29.62
27.29
28.48
32.75
38.84
45.26
50.69
54.28
55.63
54.95
53.21
52.43
55.25
63.95
79.07
98.48
117.72
131.59
136.28
130.91
117.57
99.93
81.28
63.18
45.31
26.50
5.92
-16.23
-38.86
-60.71
-80.92
-99.24
-115.66
-130.17
-142.28
-151.00
-155.23
-154.31
-148.52
-139.29
-128.82
-119.29
-112.03
-107.13
-103.54
-99.83
-94.90
-88.51
-81.20
-73.81
-66.99
-60.78
-54.68
-47.92
-39.90
-30.31
-19.17
-6.84
6.14
19.10
31.39
42.51
52.32
60.98
68.81
75.92
82.00
86.34
88.12
86.94
82.94
76.69
68.80
59.39
48.16
34.61
18.71
1.24
-16.30
-32.12
-44.83
-53.78
-59.24
-62.09
-63.45
-64.24
-64.94
-65.45
-65.14
-63.00
-57.88
-48.81
-35.31
-17.76
2.59
23.77
43.39
59.11
69.10
72.52
69.89
63.27
55.81
50.67
49.85
53.25
58.82
63.53
64.96
62.46
57.28
51.80
47.87
45.82
44.26
41.16
35.12
26.35
16.49
7.66
1.49
-1.66
-2.74
-3.40
-5.18
-8.74
-13.66
-18.69
-22.45
-24.16
-24.01
-23.07
-22.72
-23.95
-26.97
-31.14
-35.41
-38.96
-41.52
-43.44
-45.28
-47.29
-49.16
-50.05
-49.00
-45.44
-39.57
-32.42
-25.58
-20.55
-18.17
-18.26
-19.61
-20.61
-19.99
-17.40
-13.60
-10.05
-8.17
-8.64
-10.99
-13.90
-15.76
-15.40
-12.43
-7.28
-0.80
6.05
12.38
17.27
19.80
19.11
14.67
6.66
-4.00
-15.81
-27.12
-36.73
-44.10
-49.37
-53.12
-56.01
-58.58
-61.26
-64.32
-68.01
-72.55
-77.93
-83.91
-89.96
-95.49
-100.14
-104.16
-108.50
-114.59
-123.79
-136.90
-153.57
-172.22
-190.23
-204.33
-211.30
-208.47
-194.19
-167.96
-130.52
-83.73
-30.55
25.24
79.34
127.52
166.40
194.12
210.68
217.83
218.25
214.57
208.51
200.63
190.64
178.03
162.58
144.54
124.46
102.89
80.36
57.54
35.54
15.86
0.15
-10.47
-15.88
-17.08
-15.72
-13.48
-11.38
-9.58
-7.46
-4.06
1.42
9.29
19.23
30.43
41.92
52.94
63.27
73.21
83.38
94.14
105.26
115.62
123.56
127.55
126.93
122.43
115.91
109.66
105.36
103.32
102.36
100.39
95.45
86.53
73.95
58.98
43.33
28.68
16.47
7.91
3.71
3.74
6.56
9.67
10.20
6.21
-2.37
-13.74
-25.07
-33.99
-39.57
-42.39
-43.61
-44.09
-43.93
-42.89
-41.20
-40.03
-41.10
-45.76
-54.07
-64.61
-75.15
-83.68
-89.24
-92.00
-92.69
-91.96
-89.92
-86.39
-81.20
-74.56
-67.17
-59.95
-53.87
-49.65
-47.69
-47.98
-50.05
-53.06
-55.95
-57.75
-57.80
-55.98
-52.61
-48.32
-43.87
-40.04
-37.67
-37.53
-40.12
-45.30
-51.97
-58.13
-61.34
-59.72
-52.87
-42.36
-31.50
-24.12
-23.24
-29.84
-42.71
-59.05
-75.81
-90.72
-102.67
-111.23
-115.73
-114.90
-107.23
-91.92
-69.77
-43.27
-15.76
10.00
32.76
52.85
71.20
88.13
102.70
113.05
117.65
116.36
110.83
103.72
97.50
93.36
90.98
89.24
87.21
84.87
83.14
83.23
85.75
90.27
95.52
100.06
103.10
104.85
106.31
108.69
112.70
118.23
124.54
130.70
136.09
140.60
144.57
148.47
152.61
156.96
161.25
165.08
167.82
168.62
166.14
158.65
144.32
121.91
91.42
54.52
14.35
-25.24
-60.66
-89.38
-110.20
-123.08
-128.55
-127.48
-121.07
-111.13
-100.13
-90.89
-85.86
-86.28
-91.90
-101.19
-112.07
-122.77
-132.33
-140.68
-148.38
-156.14
-164.43
-173.04
-181.04
-186.89
-189.09
-186.85
-180.81
-173.05
-166.53
-163.74
-165.40
-169.75
-172.85
-169.97
-157.26
-133.20
-99.06
-58.39
-15.58
25.35
61.55
91.31
113.85
128.90
136.56
137.67
133.93
127.65
121.15
116.28
114.25
115.97
122.25
133.65
149.83
168.76
186.62
198.75
201.21
192.33
173.19
146.87
116.98
86.29
56.38
28.00
1.99
-20.27
-37.29
-48.25
-53.71
-55.54
-56.08
-57.25
-59.59
-62.08
-62.82
-59.91
-52.23
-39.92
-24.26
-7.27
8.79
21.95
30.80
34.75
34.03
29.50
22.34
13.69
4.48
-4.69
-13.30
-20.88
-26.93
-31.12
-33.58
-34.95
-36.29
-38.58
-42.36
-47.37
-52.74
-57.40
-60.59
-62.15
-62.53
-62.41
-62.36
-62.65
-63.21
-63.79
-64.16
-64.11
-63.47
-62.04
-59.66
-56.44
-52.78
-49.39
-47.01
-46.13
-46.76
-48.54
-50.89
-53.32
-55.59
-57.64
-59.61
-61.55
-63.37
-64.81
-65.40
-64.49
-61.36
-55.42
-46.38
-34.34
-19.79
-3.47
13.79
31.07
47.39
61.69
72.84
80.00
82.81
81.53
76.97
70.13
61.86
52.73
42.97
32.73
22.20
11.72
1.71
-7.36
-15.05
-20.96
-24.84
-26.87
-27.87
-29.45
-33.54
-41.66
-53.95
-68.62
-82.35
-91.56
-93.91
-89.33
-79.93
-68.88
-58.89
-51.08
-44.67
-37.51
-26.92
-10.55
12.98
43.62
79.74
118.12
154.67
185.31
207.19
219.40
222.93
219.96
212.80
203.04
191.21
176.94
159.48
138.17
112.80
83.60
51.13
16.09
-20.49
-57.13
-91.55
-120.82
-141.87
-152.52
-152.32
-142.94
-127.64
-110.08
-93.00
-77.48
-63.13
-48.89
-33.96
-18.19
-2.07
13.59
27.90
39.89
48.68
53.58
54.52
52.20
47.98
43.32
39.06
34.97
29.93
22.57
12.19
-0.87
-15.41
-29.97
-43.64
-56.40
-68.99
-82.43
-97.30
-113.32
-129.15
-142.65
-151.41
-153.47
-147.84
-134.74
-115.39
-91.28
-63.52
-32.52
1.72
38.88
77.48
114.78
147.22
171.59
186.04
190.57
186.62
176.26
161.34
143.28
123.22
102.47
82.48
64.52
49.07
35.53
22.51
8.52
-7.20
-24.27
-41.35
-56.71
-68.87
-77.14
-81.50
-82.37
-80.24
-75.44
-68.21
-58.83
-47.72
-35.42
-22.51
-9.32
4.05
17.67
31.60
45.59
59.17
71.69
82.65
91.93
99.81
106.86
113.61
120.40
127.24
133.80
139.50
143.40
144.31
140.85
131.95
117.39
98.29
77.19
57.24
40.86
28.52
18.46
7.57
-6.62
-24.07
-41.73
-54.76
-58.89
-52.77
-38.96
-23.15
-12.07
-11.23
-23.44
-48.47
-83.50
-123.99
-164.67
-200.70
-228.96
-248.88
-262.25
-271.81
-279.24
-283.77
-282.45
-271.89
-250.52
-219.85
-183.88
-146.97
-111.65
-77.59
-42.19
-2.32
43.84
95.92
151.33
206.02
255.50
295.85
324.69
341.86
349.50
351.20
350.62
349.99
349.25
346.39
338.77
324.46
303.28
276.54
246.18
213.76
179.83
144.03
105.70
64.61
21.39
-22.60
-65.72
-106.62
-144.14
-177.12
-203.95
-222.66
-231.42
-229.44
-217.64
-198.70
-176.29
-154.00
-134.39
-118.66
-106.98
-99.04
-94.52
-93.05
-93.98
-96.13
-97.94
-97.94
-95.30
-90.15
-83.53
-76.82
-71.14
-66.88
-63.69
-60.78
-57.43
-53.26
-48.35
-42.94
-37.10
-30.58
-22.97
-14.12
-4.48
4.81
12.26
16.59
17.20
14.39
9.29
3.28
-2.34
-6.87
-10.09
-12.34
-14.23
-16.49
-19.83
-24.72
-31.24
-38.95
-46.97
-54.31
-60.23
-64.58
-67.83
-70.83
-74.43
-78.94
-83.92
-87.95
-88.79
-83.48
-68.87
-42.22
-2.27
49.86
110.24
172.50
229.18
273.33
299.98
306.69
293.42
261.87
215.19
157.85
95.82
36.21
-13.66
-47.87
-63.55
-61.66
-46.65
-24.97
-3.13
13.90
23.48
25.28
20.62
11.63
0.61
-10.31
-19.37
-25.29
-27.48
-26.23
-22.80
-19.13
-17.24
-18.49
-23.03
-29.84
-37.17
-43.35
-47.37
-49.07
-48.86
-47.19
-44.28
-40.09
-34.71
-28.71
-23.23
-19.70
-19.34
-22.77
-29.74
-39.23
-49.58
-58.85
-65.10
-66.94
-63.95
-57.04
-48.29
-40.46
-36.20
-37.28
-44.13
-55.87
-70.70
-86.43
-100.96
-112.63
-120.50
-124.40
-124.78
-122.36
-117.66
-110.72
-101.15
-88.40
-72.12
-52.36
-29.66
-4.88
20.85
46.32
70.34
92.07
111.20
127.89
142.61
155.83
167.73
178.24
187.25
194.83
201.30
206.96
211.80
215.42
217.08
216.11
212.20
205.64
197.27
188.31
179.93
172.75
166.41
159.38
149.31
133.72
111.08
81.50
47.03
11.11
-22.30
-49.73
-69.06
-79.86
-83.44
-82.60
-81.18
-83.38
-92.86
-111.63
-139.34
-173.09
-208.07
-238.92
-261.16
-272.20
-271.61
-260.63
-241.39
-216.35
-188.12
-159.31
-132.45
-109.47
-91.18
-76.94
-64.84
-52.51
-38.06
-20.78
-1.26
19.00
38.26
55.08
68.54
78.19
83.85
85.58
83.78
79.25
73.18
66.92
61.55
57.57
54.96
53.25
51.92
50.61
49.18
47.57
45.67
43.25
40.00
35.80
30.78
25.35
20.17
15.92
13.13
11.96
12.18
13.16
14.11
14.37
13.69
12.43
11.39
11.49
13.35
17.02
21.94
27.28
32.28
36.61
40.32
43.69
46.92
49.98
52.67
54.73
56.00
56.36
55.68
53.79
50.54
45.95
40.36
34.29
28.06
21.40
13.33
2.51
-11.98
-29.93
-49.83
-69.30
-86.14
-99.18
-108.57
-115.17
-119.65
-121.78
-120.40
-114.06
-101.94
-84.39
-63.00
-39.92
-17.26
3.42
21.11
35.08
44.64
49.16
48.33
42.57
33.23
22.40
12.45
5.39
2.31
3.11
6.66
11.22
15.03
16.87
16.29
13.57
9.47
4.80
0.19
-4.11
-8.12
-12.05
-16.21
-20.92
-26.33
-32.27
-38.06
-42.59
-44.45
-42.40
-35.77
-24.71
-10.19
6.27
22.91
38.06
50.30
58.57
62.23
61.18
55.87
47.22
36.30
24.09
11.17
-2.13
-15.53
-28.60
-40.78
-51.73
-61.52
-70.68
-79.56
-87.85
-94.33
-97.33
-95.56
-88.66
-77.28
-62.50
-45.43
-27.14
-9.22
5.84
15.13
16.61
10.75
1.07
-6.97
-8.30
-0.77
14.03
31.90
48.40
61.05
69.83
75.88
79.36
78.38
69.88
52.27
27.72
2.43
-15.89
-21.98
-15.85
-2.54
11.10
20.55
25.84
30.71
39.37
53.31
70.36
86.22
97.14
101.79
101.17
97.13
90.87
82.70
72.70
61.56
50.65
41.37
34.36
29.18
24.67
19.63
13.27
5.23
-4.53
-15.51
-26.15
-33.85
-35.31
-28.14
-12.62
7.44
25.12
32.24
21.83
-9.49
-60.21
-123.90
-190.81
-250.25
-293.28
-314.79
-314.25
-295.18
-263.47
-225.28
-185.53
-147.40
-112.66
-82.21
-56.35
-34.43
-14.69
5.25
27.24
51.47
75.97
97.51
113.23
121.99
125.09
125.62
126.98
131.50
139.76
150.81
162.94
174.37
183.67
189.71
191.76
189.48
183.16
173.98
164.09
156.32
153.68
158.32
170.74
189.23
210.16
229.21
242.86
249.48
249.41
243.90
233.60
217.73
194.24
160.90
116.55
61.67
-1.63
-70.27
-140.64
-208.83
-270.68
-322.15
-360.04
-382.87
-391.07
-386.74
-372.70
-351.60
-325.59
-296.41
-265.77
-235.63
-207.94
-184.27
-165.38
-151.10
-140.51
-132.31
-125.04
-117.37
-108.24
-96.78
-82.34
-64.51
-43.21
-19.00
6.66
31.33
51.88
65.19
69.10
63.15
48.89
29.48
8.76
-9.91
-24.52
-34.63
-40.93
-44.45
-45.93
-45.65
-43.86
-41.24
-39.16
-39.24
-42.62
-49.37
-58.40
-67.91
-76.11
-81.57
-83.22
-80.19
-71.73
-57.65
-38.76
-17.24
3.78
21.13
32.70
38.23
39.28
38.51
38.66
41.52
47.47
55.47
63.64
69.97
73.11
72.92
70.51
67.75
66.37
67.21
69.88
73.25
76.30
79.04
82.72
89.19
99.83
114.43
130.92
145.92
155.97
158.78
153.81
142.21
126.10
107.86
89.67
73.34
60.29
51.37
46.73
45.72
47.02
49.15
51.04
52.45
53.86
55.85
58.41
60.51
60.28
55.86
46.43
32.76
17.14
2.46
-8.85
-15.70
-18.42
-18.29
-16.76
-14.77
-12.60
-10.14
-7.33
-4.43
-2.03
-0.76
-0.90
-2.22
-4.05
-5.64
-6.50
-6.66
-6.57
-6.85
-7.91
-9.73
-11.84
-13.61
-14.54
-14.51
-13.88
-13.29
-13.44
-14.80
-17.41
-20.93
-24.79
-28.40
-31.28
-33.17
-33.94
-33.53
-31.92
-29.15
-25.41
-21.10
-16.74
-12.80
-9.54
-6.87
-4.49
-2.06
0.57
3.25
5.59
7.24
7.99
7.95
7.36
6.43
5.21
3.56
1.54
-0.52
-1.91
-1.85
0.07
3.54
7.61
11.07
13.00
13.16
11.94
10.15
8.46
7.15
6.10
4.93
3.34
1.10
-1.94
-5.95
-11.10
-17.46
-24.69
-31.97
-38.01
-41.43
-41.22
-37.08
-29.63
-20.22
-10.48
-1.91
4.64
8.99
11.60
13.19
14.39
15.58
16.76
17.74
18.35
18.59
18.57
18.45
18.27
17.89
17.13
15.86
14.20
12.46
11.00
10.07
9.69
9.65
9.66
9.48
8.95
8.10
6.98
5.65
4.14
2.38
0.28
-2.29
-5.48
-9.38
-13.94
-18.89
-23.72
-27.70
-30.16
-30.63
-28.98
-25.54
-20.92
-15.89
-11.16
-7.32
-4.74
-3.59
-3.87
-5.26
-7.23
-9.04
-9.96
-9.46
-7.46
-4.33
-0.71
2.74
5.59
7.80
9.54
11.07
12.50
13.72
14.48
14.56
13.83
12.39
10.38
8.02
5.47
2.93
0.54
-1.55
-3.36
-4.94
-6.39
-7.61
-8.30
-8.10
-6.83
-4.77
-2.65
-1.25
-0.87
-0.98
-0.31
2.47
8.03
15.87
24.50
32.08
37.31
39.82
40.15
39.20
37.71
35.98
33.95
31.62
29.11
26.69
24.47
22.11
18.91
14.17
7.56
-0.44
-8.68
-15.67
-20.17
-21.64
-20.44
-17.66
-14.69
-12.76
-12.51
-13.92
-16.43
-19.24
-21.68
-23.46
-24.68
-25.70
-26.92
-28.48
-30.30
-32.11
-33.58
-34.51
-34.80
-34.42
-33.40
-31.72
-29.35
-26.28
-22.55
-18.28
-13.66
-8.93
-4.31
0.05
4.13
8.04
11.91
15.84
19.82
23.64
27.00
29.59
31.23
31.91
31.78
31.07
29.98
28.70
27.29
25.84
24.40
23.02
21.68
20.33
18.82
16.93
14.40
10.93
6.38
0.75
-5.74
-12.65
-19.47
-25.62
-30.71
-34.50
-37.04
-38.55
-39.31
-39.50
-39.09
-37.88
-35.63
-32.26
-27.94
-23.00
-17.92
-13.08
-8.70
-4.90
-1.81
0.42
1.55
1.39
-0.08
-2.65
-5.90
-9.33
-12.48
-15.09
-17.09
-18.64
-19.97
-21.20
-22.30
-23.03
-23.20
-22.73
-21.85
-21.04
-20.78
-21.37
-22.64
-24.01
-24.72
-24.07
-21.69
-17.63
-12.24
-6.03
0.47
6.76
12.40
17.04
20.41
22.40
23.12
22.83
21.95
20.90
20.03
19.47
19.19
18.95
18.48
17.62
16.37
15.01
13.83
13.11
12.87
12.86
12.71
12.05
10.78
9.05
7.27
5.91
5.33
5.62
6.67
8.13
9.70
11.12
12.30
13.24
14.00
14.65
15.23
15.76
16.21
16.53
16.54
15.94
14.35
11.43
7.06
1.60
-4.20
-9.28
-12.70
-14.02
-13.46
-11.95
-10.69
-10.65
-12.20
-15.00
-18.20
-20.97
-22.88
-24.03
-24.92
-26.05
-27.72
-29.79
-31.91
-33.71
-35.10
-36.21
-37.32
-38.58
-39.81
-40.46
-39.77
-37.00
-31.75
-24.04
-14.37
-3.62
7.19
17.08
25.33
31.54
35.64
37.87
38.67
38.55
38.06
37.61
37.50
37.85
38.69
39.93
41.39
42.81
43.84
44.23
43.91
43.10
42.21
41.71
41.76
42.11
42.23
41.50
39.65
36.91
33.93
31.45
29.99
29.60
29.89
30.08
29.21
26.39
21.03
13.06
3.03
-7.99
-18.82
-28.58
-37.05
-44.56
-51.63
-58.45
-64.57
-69.02
-70.86
-69.69
-65.94
-60.75
-55.45
-50.96
-47.47
-44.48
-41.07
-36.40
-29.95
-21.68
-12.16
-2.58
5.18
8.96
6.98
-1.37
-14.90
-30.68
-44.79
-53.63
-55.23
-49.70
-39.11
-26.40
-14.28
-4.45
2.60
7.30
10.46
12.74
14.59
16.19
17.66
19.21
21.14
23.78
27.32
31.60
36.14
40.17
42.77
43.21
41.23
37.20
32.12
27.23
23.59
21.70
21.29
21.53
21.51
20.69
19.18
17.61
16.75
17.02
18.28
19.81
20.67
20.19
18.23
15.18
11.64
7.98
4.14
-0.29
-5.72
-12.10
-18.74
-24.53
-28.38
-29.70
-28.69
-26.14
-23.06
-20.25
-18.00
-16.10
-14.11
-11.52
-8.12
-3.93
0.79
5.64
10.28
14.43
17.95
20.77
22.84
24.20
24.92
25.17
25.26
25.49
26.15
27.31
28.77
30.07
30.63
29.91
27.63
23.75
18.53
12.39
5.83
-0.66
-6.68
-11.99
-16.46
-20.10
-22.93
-24.97
-26.20
-26.64
-26.36
-25.56
-24.50
-23.43
-22.51
-21.73
-20.93
-19.86
-18.25
-15.91
-12.79
-9.07
-5.07
-1.19
2.16
4.62
5.95
6.04
4.96
3.01
0.69
-1.37
-2.61
-2.69
-1.74
-0.26
0.98
1.20
-0.08
-2.98
-7.18
-12.16
-17.33
-22.24
-26.60
-30.24
-33.03
-34.78
-35.23
-34.20
-31.67
-27.92
-23.48
-19.00
-15.01
-11.75
-9.12
-6.81
-4.53
-2.18
0.04
1.83
2.95
3.39
3.33
3.09
2.85
2.65
2.44
2.17
1.94
1.90
2.19
2.81
3.66
4.57
5.43
6.19
6.85
7.40
7.77
7.87
7.65
7.07
6.12
4.80
3.11
1.13
-0.98
-2.99
-4.65
-5.85
-6.69
-7.41
-8.37
-9.83
-11.89
-14.40
-17.04
-19.39
-21.05
-21.75
-21.39
-20.06
-17.95
-15.34
-12.51
-9.69
-7.04
-4.68
-2.67
-1.02
0.29
1.31
2.13
2.76
3.27
3.64
3.93
4.19
4.47
4.86
5.40
6.07
6.77
7.38
7.76
7.87
7.75
7.49
7.21
6.96
6.72
6.42
5.95
5.30
4.52
3.70
2.93
2.22
1.47
0.57
-0.62
-2.10
-3.81
-5.61
-7.38
-9.12
-10.83
-12.60
-14.40
-16.12
-17.52
-18.30
-18.28
-17.34
-15.58
-13.21
-10.45
-7.54
-4.63
-1.86
0.64
2.75
4.37
5.49
6.25
6.84
7.44
8.10
8.75
9.22
9.43
9.42
9.35
9.40
9.66
10.10
10.61
11.08
11.47
11.80
12.06
12.22
12.24
12.04
11.63
11.06
10.37
9.61
8.76
7.84
6.91
6.08
5.44
4.95
4.49
3.86
2.92
1.68
0.25
-1.17
-2.47
-3.68
-4.95
-6.37
-7.90
-9.30
-10.19
-10.24
-9.28
-7.40
-4.90
-2.16
0.44
2.69
4.43
5.68
6.46
6.82
6.82
6.50
5.94
5.22
4.47
3.83
3.44
3.39
3.64
4.15
4.80
5.51
6.19
6.81
7.28
7.56
7.59
7.34
6.81
6.06
5.18
4.27
3.42
2.66
1.99
1.35
0.74
0.12
-0.55
-1.27
-2.08
-2.97
-3.95
-5.03
-6.22
-7.57
-9.12
-10.90
-12.80
-14.58
-15.89
-16.40
-15.86
-14.25
-11.78
-8.80
-5.65
-2.66
-0.00
2.19
3.90
5.14
5.94
6.42
6.69
6.89
7.13
7.41
7.73
7.98
8.11
8.06
7.89
7.68
7.56
7.65
8.02
8.61
9.26
9.78
9.91
9.58
8.83
7.83
6.78
5.83
5.01
4.22
3.37
2.40
1.32
0.14
-1.09
-2.41
-3.88
-5.52
-7.28
-9.03
-10.67
-12.15
-13.53
-14.86
-16.15
-17.22
-17.77
-17.49
-16.24
-14.13
-11.47
-8.62
-5.85
-3.25
-0.81
1.46
3.46
4.99
5.90
6.21
6.10
5.87
5.78
5.89
6.10
6.23
6.18
6.02
5.91
6.11
6.73
7.76
8.96
10.01
10.58
10.45
9.63
8.32
6.87
5.60
4.70
4.15
3.73
3.22
2.43
1.35
0.06
-1.31
-2.70
-4.13
-5.69
-7.44
-9.37
-11.42
-13.48
-15.48
-17.46
-19.42
-21.26
-22.74
-23.46
-23.00
-21.12
-17.89
-13.70
-9.18
-4.96
-1.48
1.14
2.99
4.35
5.46
6.47
7.39
8.21
8.90
9.54
10.25
11.05
11.95
12.79
13.42
13.76
13.86
13.88
14.00
14.26
14.55
14.65
14.32
13.48
12.21
10.74
9.23
7.81
6.43
5.01
3.43
1.66
-0.30
-2.39
-4.50
-6.56
-8.46
-10.22
-11.88
-13.56
-15.39
-17.41
-19.56
-21.61
-23.27
-24.27
-24.38
-23.47
-21.55
-18.74
-15.26
-11.37
-7.40
-3.59
-0.21
2.62
4.84
6.52
7.80
8.87
9.85
10.81
11.66
12.28
12.60
12.61
12.49
12.38
12.44
12.68
13.02
13.36
13.59
13.72
13.77
13.75
13.59
13.23
12.57
11.58
10.35
9.00
7.68
6.46
5.33
4.19
2.89
1.32
-0.58
-2.77
-5.18
-7.68
-10.13
-12.29
-13.89
-14.62
-14.24
-12.71
-10.26
-7.31
-4.40
-1.99
-0.36
0.47
0.67
0.51
0.23
0.04
-0.00
0.07
0.21
0.33
0.43
0.55
0.78
1.16
1.70
2.35
2.99
3.55
3.95
4.16
4.12
3.75
2.99
1.81
0.26
-1.50
-3.30
-4.99
-6.53
-7.97
-9.50
-11.31
-13.55
-16.24
-19.20
-22.07
-24.38
-25.66
-25.59
-24.08
-21.28
-17.56
-13.35
-9.08
-5.08
-1.58
1.31
3.59
5.36
6.75
7.92
8.97
9.91
10.71
11.25
11.48
11.40
11.05
10.57
10.09
9.68
9.35
9.00
8.53
7.89
7.15
6.41
5.77
5.25
4.78
4.20
3.41
2.30
0.87
-0.80
-2.60
-4.40
-6.10
-7.71
-9.31
-11.05
-13.03
-15.27
-17.60
-19.74
-21.37
-22.19
-22.01
-20.71
-18.29
-14.88
-10.74
-6.29
-1.99
1.75
4.70
6.85
8.34
9.42
10.29
11.06
11.77
12.39
12.85
13.13
13.23
13.23
13.21
13.27
13.44
13.64
13.77
13.67
13.25
12.50
11.50
10.34
9.14
7.96
6.81
5.61
4.27
2.71
0.97
-0.86
-2.62
-4.16
-5.48
-6.66
-7.92
-9.39
-11.18
-13.24
-15.48
-17.77
-19.93
-21.74
-22.86
-22.93
-21.73
-19.19
-15.58
-11.32
-6.93
-2.82
0.74
3.68
6.01
7.84
9.30
10.50
11.58
12.56
13.42
14.08
14.46
14.59
14.53
14.45
14.47
14.60
14.79
14.95
15.01
14.97
14.89
14.80
14.62
14.21
13.44
12.24
10.71
9.06
7.52
6.24
5.14
4.08
2.84
1.31
-0.46
-2.29
-4.01
-5.52
-6.88
-8.22
-9.70
-11.40
-13.26
-15.11
-16.71
-17.75
-17.93
-17.04
-15.00
-11.92
-8.09
-3.91
0.23
4.03
7.37
10.20
12.56
14.49
15.97
16.98
17.52
17.68
17.57
17.36
17.17
17.02
16.88
16.65
16.30
15.83
15.32
14.81
14.32
13.81
13.22
12.52
11.71
10.84
9.90
8.90
7.81
6.66
5.50
4.41
3.42
2.52
1.64
0.67
-0.45
-1.72
-3.10
-4.56
-6.13
-7.91
-10.07
-12.69
-15.69
-18.71
-21.16
-22.46
-22.16
-20.13
-16.62
-12.14
-7.28
-2.57
1.64
5.19
8.05
10.28
11.99
13.33
14.42
15.34
16.15
16.84
17.40
17.81
18.05
18.12
17.97
17.57
16.93
16.13
15.35
14.78
14.48
14.34
14.05
13.31
11.94
10.05
7.95
5.99
4.42
3.24
2.25
1.22
-0.03
-1.51
-3.15
-4.85
-6.52
-8.13
-9.59
-10.75
-11.47
-11.67
-11.47
-11.16
-11.09
-11.53
-12.50
-13.70
-14.64
-14.83
-14.04
-12.32
-10.00
-7.52
-5.22
-3.29
-1.75
-0.55
0.34
0.90
1.08
0.94
0.58
0.19
-0.09
-0.16
-0.02
0.25
0.55
0.85
1.14
1.47
1.89
2.43
3.04
3.64
4.15
4.48
4.60
4.52
4.27
3.94
3.60
3.29
3.02
2.80
2.66
2.64
2.78
3.09
3.43
3.64
3.49
2.86
1.77
0.34
-1.24
-2.82
-4.34
-5.81
-7.27
-8.75
-10.26
-11.77
-13.26
-14.59
-15.60
-16.04
-15.69
-14.47
-12.49
-10.08
-7.65
-5.56
-4.01
-2.95
-2.20
-1.49
-0.55
0.81
2.72
5.20
8.22
11.64
15.27
18.83
22.02
24.62
26.49
27.62
28.12
28.15
27.89
27.39
26.62
25.45
23.78
21.58
19.00
16.26
13.63
11.32
9.41
7.86
6.59
5.51
4.53
3.62
2.72
1.80
0.81
-0.23
-1.28
-2.27
-3.15
-3.94
-4.69
-5.49
-6.47
-7.73
-9.27
-10.98
-12.59
-13.71
-13.96
-13.14
-11.29
-8.79
-6.10
-3.66
-1.66
-0.03
1.44
2.88
4.19
5.13
5.41
4.99
4.09
3.05
2.20
1.55
0.88
-0.08
-1.45
-3.02
-4.35
-5.03
-4.94
-4.38
-3.84
-3.80
-4.42
-5.46
-6.50
-7.18
-7.42
-7.42
-7.44
-7.63
-7.82
-7.77
-7.31
-6.63
-6.21
-6.62
-8.16
-10.70
-13.69
-16.44
-18.49
-19.78
-20.64
-21.54
-22.81
-24.43
-26.03
-27.13
-27.29
-26.35
-24.43
-21.84
-18.95
-16.09
-13.52
-11.39
-9.78
-8.67
-7.88
-7.17
-6.28
-5.02
-3.39
-1.55
0.23
1.70
2.70
3.18
3.22
2.93
2.48
2.06
1.86
1.97
2.38
2.91
3.33
3.44
3.21
2.80
2.45
2.41
2.80
3.58
4.61
5.76
6.87
7.79
8.35
8.36
7.67
6.24
4.18
1.74
-0.80
-3.28
-5.67
-8.10
-10.70
-13.51
-16.38
-18.93
-20.68
-21.15
-19.99
-17.16
-12.86
-7.55
-1.83
3.77
8.87
13.31
17.09
20.33
23.15
25.62
27.76
29.56
30.95
31.87
32.22
31.95
31.07
29.67
27.90
25.93
23.92
21.99
20.28
18.88
17.82
17.00
16.19
15.11
13.55
11.47
9.01
6.45
4.01
1.87
0.04
-1.55
-2.99
-4.34
-5.67
-7.01
-8.38
-9.77
-11.14
-12.39
-13.47
-14.33
-15.02
-15.59
-16.09
-16.48
-16.65
-16.37
-15.43
-13.66
-11.04
-7.73
-4.05
-0.41
2.83
5.36
7.04
7.79
7.63
6.62
4.88
2.68
0.31
-1.85
-3.58
-4.73
-5.32
-5.43
-5.10
-4.38
-3.36
-2.18
-1.09
-0.33
-0.03
-0.16
-0.59
-1.16
-1.86
-2.75
-3.98
-5.58
-7.48
-9.41
-11.13
-12.45
-13.37
-13.98
-14.49
-15.05
-15.77
-16.68
-17.72
-18.81
-19.79
-20.50
-20.74
-20.37
-19.32
-17.61
-15.30
-12.50
-9.31
-5.78
-1.98
1.99
5.98
9.75
13.07
15.76
17.75
19.09
19.88
20.18
20.07
19.61
18.95
18.27
17.73
17.40
17.17
16.86
16.26
15.31
14.14
13.00
12.10
11.53
11.18
10.83
10.30
9.51
8.53
7.48
6.47
5.52
4.54
3.38
1.93
0.15
-1.91
-4.18
-6.60
-9.13
-11.74
-14.31
-16.57
-18.15
-18.68
-17.92
-15.96
-13.19
-10.11
-7.25
-4.85
-2.92
-1.34
0.05
1.28
2.32
3.09
3.60
3.96
4.29
4.63
4.91
5.00
4.80
4.31
3.68
3.08
2.65
2.40
2.23
2.01
1.66
1.13
0.47
-0.26
-1.01
-1.71
-2.29
-2.68
-2.88
-2.96
-3.05
-3.37
-4.04
-5.10
-6.46
-8.02
-9.73
-11.54
-13.40
-15.12
-16.38
-16.81
-16.19
-14.60
-12.37
-9.94
-7.65
-5.57
-3.59
-1.58
0.46
2.35
3.86
4.87
5.42
5.75
6.06
6.44
6.84
7.10
7.12
6.89
6.53
6.18
5.91
5.75
5.59
5.35
4.91
4.23
3.23
1.92
0.34
-1.39
-3.15
-4.80
-6.23
-7.34
-8.06
-8.41
-8.48
-8.46
-8.62
-9.14
-10.05
-11.20
-12.36
-13.23
-13.64
-13.53
-12.93
-11.91
-10.51
-8.77
-6.69
-4.34
-1.82
0.70
2.99
4.83
6.03
6.58
6.60
6.34
6.05
5.93
6.02
6.27
6.63
7.08
7.65
8.33
9.03
9.58
9.83
9.75
9.45
9.15
9.02
9.08
9.19
9.09
8.57
7.49
5.95
4.13
2.29
0.57
-1.00
-2.49
-3.98
-5.50
-6.96
-8.23
-9.20
-9.89
-10.45
-11.08
-12.00
-13.22
-14.57
-15.69
-16.20
-15.81
-14.47
-12.36
-9.86
-7.36
-5.11
-3.22
-1.63
-0.23
1.04
2.15
2.99
3.45
3.51
3.24
2.85
2.55
2.53
2.86
3.47
4.21
4.94
5.53
5.96
6.23
6.32
6.22
5.92
5.43
4.81
4.14
3.41
2.53
1.34
-0.30
-2.42
-4.90
-7.55
-10.15
-12.58
-14.82
-16.93
-18.97
-21.02
-23.15
-25.44
-27.92
-30.51
-32.96
-34.91
-36.00
-36.01
-34.94
-33.03
-30.56
-27.76
-24.71
-21.41
-17.83
-14.06
-10.27
-6.66
-3.34
-0.30
2.56
5.37
8.17
10.92
13.56
16.03
18.39
20.71
23.04
25.30
27.32
28.87
29.82
30.17
30.09
29.85
29.67
29.66
29.77
29.84
29.70
29.22
28.35
27.10
25.51
23.57
21.28
18.70
16.01
13.44
11.21
9.46
8.10
6.92
5.64
4.11
2.43
0.82
-0.41
-1.05
-1.08
-0.66
-0.00
0.68
1.28
1.69
1.84
1.69
1.22
0.48
-0.38
-1.18
-1.74
-1.92
-1.63
-0.82
0.51
2.34
4.57
7.03
9.49
11.74
13.65
15.16
16.36
17.37
18.27
19.05
19.59
19.72
19.27
18.18
16.57
14.70
12.86
11.25
9.94
8.78
7.57
6.15
4.49
2.69
0.89
-0.82
-2.38
-3.82
-5.13
-6.30
-7.25
-7.87
-8.12
-7.99
-7.54
-6.82
-5.88
-4.78
-3.56
-2.37
-1.38
-0.79
-0.72
-1.19
-2.05
-3.10
-4.18
-5.30
-6.59
-8.23
-10.26
-12.46
-14.40
-15.58
-15.66
-14.68
-12.96
-11.00
-9.24
-7.85
-6.74
-5.71
-4.62
-3.46
-2.38
-1.53
-0.96
-0.56
-0.24
0.00
-0.07
-0.88
-2.86
-6.23
-10.74
-15.79
-20.53
-24.21
-26.49
-27.53
-27.83
-28.01
-28.48
-29.23
-29.92
-30.09
-29.46
-27.94
-25.74
-23.06
-19.95
-16.28
-11.82
-6.46
-0.36
6.05
12.21
17.64
22.09
25.59
28.27
30.34
31.91
32.96
33.44
33.32
32.63
31.50
30.06
28.40
26.49
24.26
21.64
18.74
15.78
13.12
11.04
9.58
8.49
7.39
5.96
4.06
1.84
-0.42
-2.50
-4.33
-5.97
-7.53
-9.02
-10.42
-11.69
-12.90
-14.20
-15.75
-17.60
-19.55
-21.27
-22.37
-22.62
-21.99
-20.68
-18.94
-17.08
-15.38
-14.14
-13.66
-14.16
-15.58
-17.58
-19.63
-21.11
-21.60
-20.98
-19.36
-16.99
-14.09
-10.85
-7.46
-4.16
-1.28
0.87
2.10
2.48
2.23
1.71
1.26
1.09
1.28
1.75
2.33
2.83
3.11
3.14
2.96
2.69
2.43
2.22
2.05
1.79
1.31
0.48
-0.77
-2.41
-4.28
-6.13
-7.66
-8.61
-8.75
-7.96
-6.23
-3.69
-0.60
2.72
5.87
8.57
10.68
12.27
13.52
14.61
15.61
16.47
17.04
17.18
16.89
16.25
15.40
14.50
13.62
12.82
12.16
11.68
11.45
11.46
11.60
11.70
11.55
11.02
10.16
9.13
8.19
7.55
7.31
7.40
7.64
7.87
7.92
7.72
7.23
6.48
5.50
4.31
2.94
1.41
-0.27
-2.07
-3.92
-5.72
-7.38
-8.82
-10.00
-10.83
-11.26
-11.17
-10.47
-9.12
-7.19
-4.81
-2.24
0.29
2.58
4.50
6.07
7.33
8.45
9.54
10.63
11.66
12.49
12.99
13.13
13.01
12.85
12.82
12.96
13.13
13.08
12.60
11.59
10.13
8.39
6.51
4.57
2.64
0.76
-0.95
-2.35
-3.36
-4.04
-4.58
-5.30
-6.45
-8.16
-10.38
-12.90
-15.50
-18.02
-20.41
-22.77
-25.15
-27.53
-29.71
-31.31
-31.89
-31.13
-28.96
-25.61
-21.54
-17.34
-13.44
-10.12
-7.44
-5.30
-3.56
-2.04
-0.59
0.90
2.53
4.32
6.24
8.25
10.25
12.16
13.82
15.08
15.75
15.76
15.15
14.06
12.61
10.81
8.60
5.95
3.07
0.41
-1.44
-2.12
-1.66
-0.58
0.44
0.81
0.43
-0.50
-1.63
-2.74
-3.89
-5.28
-7.07
-9.22
-11.46
-13.45
-14.96
-15.94
-16.46
-16.61
-16.39
-15.77
-14.65
-13.07
-11.13
-9.02
-6.87
-4.76
-2.68
-0.57
1.57
3.66
5.62
7.34
8.80
10.03
11.13
12.15
13.06
13.76
14.08
13.86
13.04
11.61
9.68
7.42
5.03
2.73
0.72
-0.84
-1.83
-2.27
-2.25
-1.97
-1.62
-1.31
-1.04
-0.74
-0.39
-0.06
0.05
-0.30
-1.27
-2.74
-4.37
-5.66
-6.19
-5.78
-4.55
-2.88
-1.13
0.42
1.72
2.83
3.79
4.60
5.15
5.39
5.39
5.34
5.43
5.71
6.05
6.22
6.04
5.54
4.93
4.50
4.45
4.70
5.01
5.05
4.60
3.58
2.11
0.34
-1.57
-3.50
-5.35
-6.96
-8.23
-9.09
-9.60
-9.91
-10.23
-10.76
-11.57
-12.60
-13.71
-14.70
-15.38
-15.56
-15.13
-14.06
-12.40
-10.33
-8.07
-5.82
-3.71
-1.78
0.01
1.70
3.28
4.73
5.98
6.97
7.71
8.21
8.55
8.77
8.92
9.01
9.09
9.19
9.35
9.58
9.80
9.91
9.77
9.31
8.61
7.79
6.99
6.26
5.51
4.63
3.58
2.54
1.74
1.42
1.63
2.23
2.90
3.38
3.49
3.17
2.46
1.37
-0.06
-1.75
-3.50
-5.02
-6.02
-6.43
-6.32
-6.00
-5.77
-5.80
-6.07
-6.38
-6.51
-6.34
-5.93
-5.43
-5.04
-4.85
-4.79
-4.71
-4.46
-3.95
-3.25
-2.45
-1.70
-1.12
-0.82
-0.81
-1.09
-1.55
-1.99
-2.23
-2.18
-1.86
-1.44
-1.14
-1.11
-1.35
-1.79
-2.33
-3.00
-3.85
-4.99
-6.44
-8.07
-9.69
-11.15
-12.44
-13.62
-14.79
-15.88
-16.70
-16.96
-16.40
-15.01
-12.97
-10.53
-7.94
-5.36
-2.81
-0.37
1.81
3.51
4.60
5.09
5.22
5.33
5.68
6.37
7.26
8.16
8.89
9.39
9.73
10.07
10.57
11.31
12.31
13.45
14.56
15.45
16.03
16.28
16.32
16.25
16.11
15.90
15.53
14.92
14.09
13.11
12.04
10.98
9.95
8.92
7.84
6.65
5.24
3.54
1.51
-0.79
-3.22
-5.59
-7.67
-9.26
-10.24
-10.57
-10.31
-9.55
-8.47
-7.24
-6.08
-5.17
-4.63
-4.50
-4.69
-5.05
-5.42
-5.70
-5.81
-5.74
-5.49
-5.02
-4.35
-3.51
-2.54
-1.59
-0.76
-0.13
0.25
0.40
0.34
0.12
-0.22
-0.64
-1.12
-1.66
-2.26
-2.94
-3.70
-4.57
-5.58
-6.78
-8.16
-9.66
-11.08
-12.17
-12.68
-12.40
-11.34
-9.59
-7.35
-4.84
-2.21
0.40
2.88
5.05
6.78
7.94
8.53
8.67
8.61
8.58
8.77
9.23
9.87
10.55
11.14
11.54
11.74
11.71
11.48
11.08
10.55
9.94
9.26
8.44
7.37
5.98
4.26
2.32
0.34
-1.52
-3.14
-4.54
-5.76
-6.88
-7.95
-9.07
-10.32
-11.81
-13.50
-15.16
-16.39
-16.75
-15.94
-13.97
-11.16
-7.98
-4.87
-2.08
0.42
2.77
5.12
7.52
9.82
11.83
13.35
14.29
14.69
14.67
14.43
14.15
13.94
13.88
13.93
14.00
13.98
13.72
13.14
12.26
11.17
10.03
9.00
8.18
7.59
7.16
6.75
6.17
5.29
4.03
2.40
0.49
-1.54
-3.57
-5.46
-7.17
-8.72
-10.13
-11.46
-12.72
-13.87
-14.77
-15.25
-15.13
-14.28
-12.69
-10.49
-7.90
-5.15
-2.45
0.07
2.32
4.23
5.71
6.71
7.22
7.31
7.18
7.00
6.91
6.95
7.04
7.14
7.21
7.32
7.54
7.93
8.48
9.12
9.77
10.36
10.85
11.22
11.43
11.39
11.04
10.37
9.40
8.23
6.92
5.54
4.11
2.62
1.07
-0.55
-2.26
-4.05
-5.94
-7.93
-10.02
-12.20
-14.33
-16.21
-17.53
-18.01
-17.44
-15.80
-13.28
-10.17
-6.85
-3.62
-0.68
1.85
3.94
5.62
6.93
7.93
8.72
9.32
9.73
9.93
9.91
9.73
9.50
9.36
9.36
9.49
9.62
9.55
9.16
8.40
7.36
6.23
5.17
4.31
3.65
3.12
2.60
2.00
1.29
0.44
-0.54
-1.63
-2.80
-3.99
-5.14
-6.18
-7.09
-7.94
-8.90
-10.12
-11.77
-13.85
-16.20
-18.54
-20.53
-21.84
-22.17
-21.39
-19.49
-16.67
-13.27
-9.69
-6.35
-3.51
-1.27
0.45
1.77
2.86
3.78
4.54
5.17
5.63
5.97
6.21
6.44
6.72
7.13
7.72
8.51
9.45
10.39
11.18
11.65
11.74
11.46
10.90
10.17
9.33
8.37
7.20
5.76
4.03
2.11
0.21
-1.51
-2.91
-4.01
-4.93
-5.85
-6.93
-8.25
-9.80
-11.50
-13.17
-14.63
-15.66
-16.09
-15.83
-14.88
-13.33
-11.36
-9.16
-6.93
-4.83
-3.00
-1.51
-0.39
0.44
1.09
1.68
2.30
2.96
3.62
4.19
4.63
4.96
5.22
5.49
5.81
6.18
6.58
6.94
7.19
7.28
7.19
6.92
6.46
5.82
4.99
3.95
2.71
1.35
-0.07
-1.42
-2.64
-3.69
-4.61
-5.46
-6.36
-7.36
-8.51
-9.77
-11.06
-12.25
-13.15
-13.61
-13.50
-12.76
-11.44
-9.70
-7.78
-5.89
-4.18
-2.71
-1.44
-0.29
0.78
1.79
2.66
3.30
3.66
3.79
3.80
3.87
4.18
4.83
5.81
6.95
8.08
8.99
9.59
9.91
10.03
10.03
9.88
9.49
8.76
7.68
6.35
4.95
3.68
2.64
1.82
1.13
0.45
-0.28
-1.09
-1.93
-2.81
-3.71
-4.66
-5.71
-6.87
-8.15
-9.51
-10.85
-11.98
-12.68
-12.75
-12.06
-10.59
-8.47
-5.95
-3.31
-0.84
1.25
2.84
3.92
4.57
4.85
4.85
4.62
4.18
3.63
3.13
2.87
3.02
3.61
4.52
5.51
6.33
6.86
7.12
7.24
7.36
7.52
7.68
7.72
7.57
7.18
6.60
5.86
4.99
3.99
2.84
1.59
0.32
-0.86
-1.86
-2.71
-3.47
-4.33
-5.41
-6.77
-8.41
-10.23
-12.12
-13.99
-15.70
-17.09
-17.88
-17.81
-16.66
-14.43
-11.39
-8.04
-4.93
-2.54
-1.08
-0.43
-0.23
-0.08
0.37
1.21
2.27
3.26
3.90
4.10
3.97
3.82
3.92
4.39
5.15
5.94
6.47
6.61
6.35
5.75
4.87
3.80
2.59
1.40
0.46
0.01
0.14
0.77
1.58
2.18
2.22
1.55
0.26
-1.39
-3.07
-4.52
-5.62
-6.40
-7.00
-7.58
-8.28
-9.09
-9.92
-10.57
-10.79
-10.38
-9.22
-7.34
-4.91
-2.23
0.36
2.58
4.22
5.23
5.66
5.64
5.33
4.95
4.69
4.68
4.99
5.55
6.20
6.75
7.02
6.96
6.65
6.24
5.91
5.77
5.77
5.83
5.78
5.50
4.95
4.13
3.09
1.91
0.66
-0.58
-1.79
-2.92
-4.00
-5.06
-6.18
-7.44
-8.84
-10.35
-11.82
-13.07
-13.85
-13.96
-13.25
-11.73
-9.56
-7.02
-4.46
-2.17
-0.30
1.16
2.29
3.20
3.96
4.58
5.01
5.21
5.20
5.02
4.72
4.37
4.00
3.64
3.35
3.23
3.33
3.66
4.14
4.64
5.02
5.19
5.12
4.81
4.34
3.73
3.00
2.15
1.13
-0.05
-1.38
-2.77
-4.12
-5.32
-6.30
-7.10
-7.79
-8.48
-9.30
-10.26
-11.35
-12.48
-13.50
-14.23
-14.46
-14.07
-13.03
-11.42
-9.42
-7.21
-5.00
-2.89
-0.98
0.72
2.20
3.48
4.56
5.46
6.24
6.94
7.63
8.34
9.05
9.76
10.41
10.96
11.45
11.87
12.23
12.51
12.71
12.84
12.94
13.08
13.21
13.23
13.00
12.41
11.42
10.09
8.54
6.89
5.28
3.86
2.73
1.92
1.37
0.94
0.48
-0.09
-0.79
-1.50
-2.09
-2.45
-2.45
-2.04
-1.18
0.05
1.46
2.69
3.32
2.98
1.51
-0.95
-4.02
-7.15
-9.85
-11.83
-12.97
-13.40
-13.29
-12.86
-12.24
-11.56
-10.88
-10.32
-9.98
-10.01
-10.50
-11.43
-12.72
-14.09
-15.29
-16.07
-16.33
-16.15
-15.70
-15.21
-14.78
-14.40
-13.97
-13.40
-12.65
-11.73
-10.68
-9.48
-8.02
-6.18
-3.91
-1.28
1.46
3.93
5.78
6.79
6.99
6.62
6.02
5.54
5.39
5.64
6.27
7.25
8.53
10.16
12.12
14.33
16.59
18.67
20.34
21.47
22.03
22.15
22.03
21.86
21.81
21.92
22.17
22.51
22.91
23.35
23.77
24.13
24.42
24.74
25.30
26.25
27.58
28.99
29.83
29.44
27.33
23.57
18.86
14.41
11.47
10.88
12.69
16.11
19.90
22.80
24.13
24.02
23.25
22.82
23.43
25.09
27.24
29.06
29.83
29.24
27.42
24.80
21.97
19.40
17.39
15.93
14.80
13.51
11.49
8.09
2.68
-5.20
-15.52
-27.47
-39.28
-48.66
-53.65
-53.73
-50.46
-46.86
-45.92
-48.92
-54.73
-60.53
-63.56
-62.80
-59.24
-55.08
-52.04
-50.52
-49.62
-48.27
-46.11
-43.83
-42.49
-42.65
-43.84
-44.84
-44.46
-42.12
-38.03
-32.79
-27.03
-21.20
-15.63
-10.67
-6.64
-3.74
-1.87
-0.66
0.37
1.50
2.77
4.02
5.09
6.09
7.43
9.57
12.61
16.07
18.99
20.41
20.06
18.72
18.00
19.64
24.62
32.67
42.45
52.22
60.63
67.19
72.12
75.91
78.82
80.68
81.03
79.50
76.12
71.36
66.13
61.43
58.21
57.05
57.95
60.33
63.11
65.16
65.67
64.49
62.06
59.11
56.35
54.23
53.05
53.16
55.20
59.93
67.90
79.07
92.51
106.60
119.45
129.51
136.01
139.09
139.47
137.99
135.14
130.79
124.26
114.64
101.19
83.66
62.53
38.99
14.75
-8.45
-29.26
-47.02
-61.83
-74.40
-85.69
-96.62
-107.97
-120.20
-133.55
-147.89
-162.76
-177.44
-191.09
-203.00
-212.78
-220.35
-225.90
-229.69
-232.02
-233.12
-233.21
-232.39
-230.56
-227.38
-222.49
-215.75
-207.46
-198.32
-189.17
-180.56
-172.49
-164.41
-155.47
-144.79
-131.82
-116.54
-99.73
-82.78
-67.35
-54.64
-44.74
-36.38
-27.39
-15.70
-0.30
18.34
38.75
59.36
79.29
98.34
116.45
133.06
146.95
156.78
161.88
162.54
159.63
153.75
144.80
132.24
115.97
97.26
78.75
63.60
54.05
50.45
51.23
53.93
56.42
57.84
58.68
60.04
62.71
66.42
69.81
70.99
68.53
62.20
53.21
43.69
35.61
29.74
25.43
21.19
15.66
8.65
1.17
-5.41
-10.35
-13.94
-16.80
-18.57
-17.27
-9.98
5.30
27.73
53.15
75.56
89.89
94.33
90.83
83.56
76.40
71.08
67.02
62.64
56.93
50.22
43.60
37.69
31.86
24.55
14.42
1.32
-13.29
-26.81
-36.83
-42.04
-42.55
-39.68
-35.25
-30.84
-27.36
-24.82
-22.60
-19.77
-15.73
-10.60
-5.40
-1.79
-1.36
-4.92
-12.07
-21.39
-31.14
-39.89
-46.90
-51.91
-54.64
-54.55
-50.96
-43.55
-32.98
-20.92
-9.66
-1.20
3.47
4.54
2.98
-0.09
-3.86
-7.83
-11.57
-14.52
-16.07
-16.01
-14.84
-13.67
-13.80
-16.17
-21.05
-28.29
-37.62
-48.91
-61.88
-75.69
-88.61
-98.38
-103.10
-102.28
-97.27
-90.77
-85.69
-83.80
-85.07
-87.79
-89.54
-88.16
-82.50
-72.57
-59.26
-43.84
-27.49
-10.94
5.73
23.01
41.72
62.21
83.84
104.62
121.69
132.39
135.46
131.75
123.87
114.96
107.22
101.03
95.23
88.17
79.03
68.38
57.85
49.14
43.09
39.42
37.18
35.57
34.39
34.10
35.21
37.80
41.19
44.24
45.83
45.30
42.73
38.80
34.51
30.75
28.02
26.19
24.60
22.23
18.15
11.89
3.75
-5.38
-14.38
-22.55
-30.02
-37.70
-46.68
-57.51
-69.59
-81.28
-90.58
-96.07
-97.50
-95.82
-92.60
-89.31
-86.95
-85.97
-86.47
-88.29
-90.89
-93.17
-93.52
-90.40
-82.90
-71.31
-57.02
-41.88
-27.52
-14.83
-3.98
5.15
12.54
17.88
20.74
20.94
18.76
14.85
10.00
4.74
-0.81
-6.74
-13.13
-19.66
-25.55
-29.84
-31.81
-31.41
-29.39
-27.02
-25.54
-25.59
-26.91
-28.52
-29.06
-27.33
-22.56
-14.56
-3.70
9.23
23.08
36.46
47.93
56.34
61.22
62.91
62.53
61.51
61.03
61.57
62.72
63.47
62.64
59.35
53.34
45.02
35.32
25.32
15.95
7.67
0.32
-6.80
-14.49
-23.21
-32.57
-41.22
-47.19
-48.63
-44.82
-36.62
-26.56
-17.89
-13.45
-14.56
-20.51
-29.11
-37.62
-44.07
-47.80
-49.46
-50.21
-50.85
-51.28
-50.43
-46.91
-39.75
-29.03
-15.94
-2.37
9.70
18.91
24.70
27.20
26.87
24.08
19.11
12.33
4.57
-2.85
-8.41
-11.13
-11.14
-9.68
-8.49
-8.86
-10.90
-13.66
-15.83
-16.80
-17.16
-18.49
-22.40
-29.59
-39.45
-50.41
-60.90
-70.08
-78.04
-85.11
-91.12
-94.95
-94.99
-90.13
-80.77
-68.96
-57.45
-48.18
-41.07
-34.03
-24.19
-9.67
9.17
29.96
49.62
66.05
79.01
89.81
99.97
110.06
119.35
126.42
130.24
130.88
129.34
126.77
123.67
119.70
114.04
106.16
96.35
85.66
75.45
66.74
59.79
54.07
48.60
42.43
35.02
26.39
17.14
8.15
0.43
-5.16
-8.05
-8.01
-5.25
-0.41
5.55
11.47
16.32
19.44
20.78
20.79
20.26
19.82
19.74
19.78
19.40
18.11
15.81
12.79
9.49
6.11
2.30
-2.74
-9.89
-19.54
-31.08
-42.97
-53.09
-59.53
-61.28
-58.67
-53.36
-47.86
-44.76
-46.02
-52.20
-62.14
-72.89
-80.10
-78.68
-63.93
-32.85
14.44
73.96
138.16
197.60
243.47
270.10
276.18
264.34
239.40
206.30
168.92
129.97
91.74
56.67
27.29
5.43
-8.52
-15.77
-18.51
-18.86
-18.04
-16.33
-13.32
-8.72
-3.01
2.25
4.66
1.63
-8.47
-25.37
-46.52
-67.73
-84.67
-94.65
-97.74
-96.73
-95.77
-98.47
-106.26
-118.05
-131.00
-142.12
-149.64
-153.46
-154.70
-154.65
-153.86
-151.86
-147.54
-139.91
-128.82
-115.18
-100.62
-86.90
-75.27
-66.08
-58.80
-52.42
-45.95
-38.99
-31.83
-25.21
-19.62
-14.76
-9.47
-2.48
6.57
16.54
25.17
30.27
31.05
28.80
26.22
26.06
29.71
36.73
45.35
53.69
60.78
66.68
71.93
76.70
80.33
81.59
79.44
73.68
65.15
55.46
46.33
38.94
33.65
29.98
27.04
24.03
20.57
16.93
13.86
12.22
12.58
14.90
18.50
22.38
25.53
27.42
28.08
27.95
27.51
26.99
26.25
24.94
22.81
19.85
16.32
12.43
8.14
3.04
-3.40
-11.51
-21.19
-31.89
-42.73
-52.80
-61.15
-66.84
-68.95
-66.86
-60.68
-51.76
-42.54
-36.20
-35.42
-41.34
-52.60
-65.36
-73.93
-72.04
-54.46
-18.71
33.70
96.99
162.08
218.63
257.65
273.70
265.77
236.93
192.90
140.47
86.24
36.12
-5.02
-33.61
-47.97
-48.69
-38.82
-23.24
-7.43
3.88
7.95
4.27
-5.74
-19.72
-35.58
-52.07
-68.90
-86.08
-103.15
-118.67
-130.30
-135.67
-133.36
-123.75
-109.03
-92.55
-77.69
-66.71
-60.25
-57.47
-56.60
-55.85
-54.01
-50.78
-46.62
-42.38
-38.96
-37.00
-36.66
-37.66
-39.42
-41.37
-43.33
-45.72
-49.53
-55.67
-64.47
-75.04
-85.35
-92.66
-94.32
-88.63
-75.33
-55.75
-32.48
-8.85
11.85
27.32
37.16
43.28
49.55
60.37
78.76
104.87
135.66
166.18
191.70
209.66
220.25
225.50
227.59
227.23
223.34
213.75
196.65
171.79
140.75
106.39
71.80
39.26
9.79
-16.73
-40.79
-62.54
-81.60
-97.32
-109.41
-118.12
-123.77
-125.84
-122.47
-111.01
-90.04
-60.50
-26.06
8.18
37.34
59.13
74.59
86.85
98.86
111.47
123.79
134.38
142.68
148.75
153.30
156.84
159.27
159.67
156.10
147.68
135.51
122.78
111.99
104.66
100.82
99.09
97.11
90.15
75.73
55.12
33.71
14.14
-2.54
-16.71
-29.09
-40.52
-56.49
-79.68
-107.93
-133.44
-155.41
-175.99
-198.17
-222.82
-248.54
-279.75
-316.30
-352.48
-376.78
-391.29
-403.27
-420.45
-446.13
-480.21
-530.77
-600.00
-680.17
-750.74
-803.70
-835.87
-848.04
-842.39
-760.26
-588.93
-368.91
-203.23
-93.55
-23.62
31.04
77.70
119.61
158.64
186.58
200.61
207.15
223.56
252.33
289.75
329.48
367.70
402.47
425.73
434.95
435.85
443.59
462.12
489.71
520.51
548.10
565.87
563.79
537.38
490.58
436.20
381.98
332.94
291.30
258.04
232.47
210.14
187.17
162.08
137.17
113.05
90.66
71.25
56.32
46.28
39.22
32.27
22.71
9.01
-10.59
-36.84
-68.77
-103.43
-136.48
-163.37
-180.61
-186.57
-181.69
-167.90
-148.04
-125.45
-103.87
-87.47
-80.24
-84.78
-101.10
-125.94
-153.45
-177.09
-191.72
-194.95
-187.13
-170.12
-145.83
-115.53
-80.16
-41.28
-1.80
34.27
62.98
81.88
91.20
93.59
93.25
94.30
99.48
109.56
123.41
138.58
151.99
160.77
162.84
157.36
144.99
127.70
108.33
89.80
74.49
63.56
56.99
53.82
52.76
52.73
53.09
53.63
54.19
54.37
53.51
50.81
45.75
38.19
28.42
16.89
4.09
-9.40
-22.71
-34.64
-43.98
-50.16
-53.83
-56.79
-61.22
-68.42
-77.91
-87.42
-93.90
-95.01
-90.16
-80.69
-68.92
-57.04
-46.15
-36.18
-26.42
-16.24
-5.61
4.83
14.15
21.66
27.18
31.12
34.24
37.30
40.68
44.36
47.97
50.91
52.41
51.65
47.69
39.75
27.56
11.70
-6.33
-24.42
-40.44
-52.87
-61.22
-65.88
-67.77
-67.90
-67.05
-65.69
-64.14
-62.54
-60.87
-58.84
-55.88
-51.36
-44.91
-36.74
-27.76
-19.35
-12.80
-8.80
-7.11
-6.61
-5.84
-3.58
0.60
6.28
12.33
17.50
20.92
22.29
21.97
20.60
18.89
17.33
16.17
15.47
15.25
15.52
16.24
17.33
18.52
19.51
19.97
19.71
18.77
17.35
15.74
14.20
12.85
11.56
10.06
8.00
5.20
1.71
-2.08
-5.67
-8.56
-10.47
-11.36
-11.36
-10.62
-9.25
-7.32
-4.94
-2.34
0.17
2.27
3.77
4.57
4.71
4.26
3.34
2.11
0.86
-0.03
-0.26
0.28
1.37
2.54
3.33
3.50
3.12
2.52
2.02
1.76
1.69
1.70
1.76
1.97
2.39
2.94
3.25
2.94
1.78
-0.05
-1.98
-3.35
-3.65
-2.79
-1.07
0.99
2.87
4.20
4.81
4.68
3.85
2.44
0.59
-1.56
-3.81
-5.88
-7.51
-8.36
-8.24
-7.11
-5.16
-2.74
-0.17
2.34
4.75
7.16
9.62
12.04
14.09
15.39
15.66
14.82
13.05
10.60
7.69
4.48
1.08
-2.29
-5.29
-7.53
-8.70
-8.80
-8.09
-6.97
-5.78
-4.65
-3.52
-2.31
-1.07
-0.08
0.29
-0.31
-1.91
-4.23
-6.66
-8.50
-9.19
-8.46
-6.51
-3.82
-1.04
1.30
2.93
3.87
4.33
4.49
4.38
3.91
2.91
1.27
-0.96
-3.56
-6.29
-8.87
-11.09
-12.78
-13.74
-13.78
-12.71
-10.50
-7.31
-3.51
0.35
3.73
6.25
7.78
8.39
8.35
7.93
7.31
6.63
5.92
5.28
4.78
4.53
4.54
4.74
4.98
5.09
4.98
4.64
4.15
3.62
3.19
2.89
2.71
2.55
2.25
1.60
0.41
-1.38
-3.67
-6.13
-8.28
-9.66
-9.99
-9.18
-7.35
-4.81
-1.89
1.07
3.82
6.17
8.01
9.28
9.91
9.90
9.29
8.19
6.82
5.41
4.20
3.29
2.68
2.26
1.94
1.66
1.42
1.27
1.17
1.01
0.68
0.09
-0.76
-1.79
-2.89
-3.98
-5.08
-6.25
-7.59
-9.14
-10.81
-12.33
-13.34
-13.44
-12.42
-10.32
-7.50
-4.48
-1.74
0.40
1.89
2.79
3.17
2.99
2.21
0.87
-0.75
-2.20
-3.02
-2.94
-2.04
-0.65
0.83
2.16
3.31
4.40
5.49
6.44
6.96
6.77
5.76
4.12
2.16
0.20
-1.61
-3.32
-5.09
-6.98
-8.93
-10.73
-12.09
-12.79
-12.66
-11.64
-9.78
-7.27
-4.37
-1.43
1.21
3.32
4.85
5.87
6.51
6.91
7.15
7.27
7.29
7.26
7.24
7.27
7.33
7.37
7.29
6.99
6.42
5.62
4.70
3.77
2.95
2.26
1.62
0.90
-0.03
-1.23
-2.61
-4.02
-5.31
-6.41
-7.44
-8.56
-9.94
-11.60
-13.30
-14.68
-15.28
-14.79
-13.09
-10.34
-6.93
-3.29
0.17
3.17
5.56
7.33
8.51
9.13
9.29
9.06
8.62
8.13
7.77
7.63
7.68
7.81
7.92
7.91
7.77
7.52
7.17
6.73
6.20
5.58
4.87
4.05
3.12
2.05
0.85
-0.45
-1.70
-2.77
-3.60
-4.22
-4.81
-5.67
-7.05
-9.07
-11.58
-14.13
-16.13
-16.99
-16.37
-14.31
-11.20
-7.66
-4.26
-1.38
0.89
2.65
4.07
5.27
6.27
7.08
7.68
8.15
8.58
9.05
9.61
10.23
10.82
11.26
11.54
11.71
11.91
12.28
12.85
13.45
13.81
13.69
12.96
11.67
9.99
8.06
5.93
3.52
0.75
-2.29
-5.38
-8.16
-10.35
-11.89
-12.98
-13.95
-15.09
-16.42
-17.67
-18.38
-18.12
-16.72
-14.39
-11.62
-8.93
-6.67
-4.87
-3.28
-1.67
0.04
1.61
2.67
2.88
2.23
1.05
-0.08
-0.63
-0.34
0.69
2.10
3.48
4.61
5.47
6.25
7.08
8.00
8.86
9.45
9.58
9.17
8.21
6.78
4.94
2.78
0.42
-2.00
-4.34
-6.52
-8.53
-10.42
-12.26
-13.99
-15.49
-16.52
-16.81
-16.18
-14.61
-12.24
-9.37
-6.37
-3.57
-1.19
0.66
2.02
2.95
3.54
3.89
4.08
4.23
4.48
4.98
5.74
6.69
7.62
8.33
8.68
8.64
8.30
7.75
7.12
6.39
5.55
4.49
3.12
1.36
-0.82
-3.34
-6.02
-8.57
-10.74
-12.38
-13.49
-14.23
-14.77
-15.25
-15.64
-15.80
-15.49
-14.46
-12.55
-9.78
-6.34
-2.55
1.18
4.54
7.31
9.45
11.00
12.04
12.62
12.74
12.52
12.11
11.77
11.68
11.86
12.12
12.14
11.67
10.68
9.38
8.12
7.18
6.62
6.28
5.92
5.31
4.41
3.26
1.99
0.68
-0.65
-1.95
-3.19
-4.35
-5.45
-6.62
-8.05
-9.84
-11.90
-13.87
-15.21
-15.46
-14.43
-12.31
-9.57
-6.77
-4.28
-2.20
-0.37
1.39
3.16
4.73
5.82
6.14
5.71
4.73
3.59
2.66
2.19
2.32
3.06
4.44
6.32
8.51
10.69
12.54
13.86
14.58
14.84
14.75
14.40
13.76
12.78
11.46
9.89
8.25
6.69
5.21
3.70
2.00
-0.01
-2.38
-4.97
-7.63
-10.16
-12.38
-14.11
-15.16
-15.32
-14.47
-12.62
-9.99
-6.92
-3.76
-0.78
1.85
4.07
5.80
6.96
7.46
7.32
6.72
5.98
5.48
5.50
6.14
7.25
8.57
9.76
10.58
10.87
10.68
10.11
9.32
8.41
7.38
6.22
4.86
3.36
1.80
0.28
-1.09
-2.30
-3.39
-4.47
-5.60
-6.80
-8.03
-9.27
-10.54
-11.93
-13.51
-15.28
-17.05
-18.49
-19.16
-18.76
-17.23
-14.78
-11.86
-8.98
-6.49
-4.51
-2.97
-1.74
-0.78
-0.16
-0.03
-0.40
-1.16
-2.00
-2.55
-2.58
-2.02
-1.06
0.01
0.90
1.49
1.77
1.83
1.80
1.68
1.43
0.94
0.14
-0.91
-2.14
-3.37
-4.50
-5.47
-6.30
-7.03
-7.67
-8.26
-8.79
-9.40
-10.24
-11.49
-13.13
-14.95
-16.46
-17.08
-16.40
-14.37
-11.36
-8.01
-4.95
-2.56
-0.88
0.32
1.34
2.29
3.14
3.74
4.03
4.09
4.12
4.34
4.89
5.71
6.58
7.26
7.54
7.37
6.84
6.17
5.59
5.26
5.11
4.95
4.51
3.60
2.22
0.56
-1.12
-2.61
-3.84
-4.86
-5.83
-6.91
-8.20
-9.82
-11.79
-14.09
-16.53
-18.74
-20.31
-20.77
-19.91
-17.76
-14.64
-11.02
-7.38
-4.05
-1.17
1.25
3.30
4.98
6.25
7.13
7.65
7.92
8.07
8.17
8.19
8.07
7.74
7.17
6.44
5.65
4.86
4.12
3.46
2.93
2.53
2.26
2.02
1.71
1.16
0.34
-0.64
-1.57
-2.12
-2.11
-1.51
-0.53
0.48
1.12
1.15
0.48
-0.82
-2.56
-4.46
-6.21
-7.48
-7.94
-7.40
-5.89
-3.62
-1.02
1.52
3.67
5.28
6.34
6.97
7.30
7.46
7.57
7.68
7.87
8.12
8.43
8.80
9.21
9.62
9.96
10.13
10.06
9.76
9.32
8.85
8.44
8.06
7.60
6.88
5.84
4.52
3.08
1.73
0.57
-0.36
-1.22
-2.14
-3.19
-4.36
-5.56
-6.73
-7.84
-9.02
-10.39
-12.05
-13.97
-15.94
-17.64
-18.70
-18.86
-17.95
-16.05
-13.40
-10.31
-7.16
-4.15
-1.37
1.18
3.59
5.86
7.92
9.71
11.16
12.28
13.16
13.87
14.47
14.98
15.42
15.82
16.20
16.58
16.91
17.14
17.24
17.18
16.96
16.58
15.99
15.12
14.02
12.80
11.65
10.74
10.10
9.56
8.84
7.65
5.85
3.52
0.96
-1.49
-3.50
-4.92
-5.77
-6.26
-6.73
-7.52
-8.92
-10.97
-13.43
-15.83
-17.61
-18.34
-17.85
-16.25
-13.85
-11.07
-8.25
-5.62
-3.31
-1.36
0.27
1.59
2.62
3.34
3.70
3.64
3.14
2.31
1.36
0.56
0.10
0.07
0.42
0.98
1.61
2.20
2.72
3.21
3.69
4.16
4.56
4.83
4.90
4.77
4.49
4.12
3.68
3.17
2.54
1.78
0.89
-0.07
-1.06
-2.04
-3.14
-4.46
-6.14
-8.17
-10.37
-12.44
-13.92
-14.43
-13.73
-11.86
-9.09
-5.87
-2.65
0.28
2.82
5.01
6.89
8.41
9.40
9.66
9.13
7.99
6.61
5.43
4.74
4.61
4.88
5.26
5.52
5.56
5.38
5.04
4.60
4.05
3.33
2.40
1.24
-0.09
-1.48
-2.77
-3.88
-4.75
-5.44
-6.00
-6.59
-7.28
-8.12
-9.09
-10.17
-11.36
-12.71
-14.27
-15.99
-17.63
-18.79
-18.96
-17.77
-15.14
-11.39
-7.14
-3.11
0.16
2.48
4.02
5.17
6.28
7.49
8.68
9.56
9.91
9.68
9.09
8.48
8.15
8.16
8.37
8.51
8.39
8.03
7.60
7.33
7.26
7.27
7.09
6.51
5.52
4.32
3.18
2.26
1.52
0.71
-0.38
-1.90
-3.71
-5.56
-7.17
-8.46
-9.54
-10.68
-12.10
-13.82
-15.60
-17.00
-17.55
-16.97
-15.19
-12.45
-9.13
-5.70
-2.55
0.11
2.18
3.74
4.93
5.91
6.82
7.71
8.55
9.24
9.72
9.93
9.95
9.89
9.88
10.02
10.31
10.72
11.18
11.62
11.99
12.27
12.40
12.34
12.05
11.52
10.82
9.98
9.06
8.04
6.83
5.36
3.57
1.57
-0.50
-2.40
-3.98
-5.20
-6.17
-7.17
-8.47
-10.32
-12.72
-15.41
-17.94
-19.72
-20.28
-19.33
-16.95
-13.50
-9.51
-5.55
-2.03
0.83
3.00
4.56
5.71
6.59
7.40
8.24
9.21
10.32
11.50
12.62
13.51
14.13
14.47
14.65
14.80
14.96
15.13
15.18
15.03
14.59
13.90
13.04
12.10
11.17
10.27
9.39
8.44
7.37
6.08
4.52
2.66
0.52
-1.81
-4.23
-6.61
-8.85
-10.88
-12.77
-14.61
-16.51
-18.48
-20.30
-21.60
-21.93
-20.97
-18.72
-15.44
-11.65
-7.87
-4.47
-1.64
0.60
2.32
3.57
4.41
4.92
5.20
5.41
5.66
6.00
6.43
6.86
7.22
7.49
7.65
7.72
7.70
7.60
7.40
7.15
6.86
6.58
6.29
5.93
5.42
4.69
3.71
2.55
1.28
-0.03
-1.36
-2.74
-4.26
-5.99
-7.96
-10.17
-12.53
-14.87
-16.91
-18.28
-18.61
-17.62
-15.34
-12.07
-8.34
-4.75
-1.67
0.72
2.52
3.91
5.00
5.83
6.33
6.55
6.59
6.63
6.79
7.10
7.43
7.62
7.52
7.08
6.37
5.51
4.64
3.87
3.23
2.73
2.32
1.94
1.54
1.06
0.45
-0.31
-1.19
-2.15
-3.11
-4.01
-4.83
-5.62
-6.52
-7.63
-9.08
-10.84
-12.70
-14.33
-15.32
-15.35
-14.30
-12.32
-9.77
-7.07
-4.54
-2.36
-0.59
0.82
1.96
2.87
3.55
4.03
4.30
4.35
4.16
3.72
3.04
2.18
1.22
0.32
-0.34
-0.58
-0.31
0.48
1.61
2.82
3.81
4.36
4.37
3.83
2.83
1.45
-0.20
-1.99
-3.75
-5.29
-6.47
-7.27
-7.85
-8.49
-9.48
-11.01
-13.00
-15.18
-17.07
-18.23
-18.31
-17.17
-14.93
-11.85
-8.30
-4.64
-1.21
1.81
4.28
6.18
7.60
8.60
9.32
9.86
10.29
10.66
10.97
11.20
11.30
11.29
11.21
11.13
11.11
11.17
11.25
11.28
11.20
11.02
10.77
10.47
10.10
9.60
8.84
7.73
6.23
4.45
2.57
0.87
-0.46
-1.35
-1.87
-2.33
-3.09
-4.48
-6.61
-9.31
-12.13
-14.42
-15.67
-15.60
-14.34
-12.27
-9.87
-7.51
-5.29
-3.16
-0.99
1.19
3.20
4.76
5.66
5.88
5.66
5.31
5.12
5.24
5.64
6.17
6.67
7.06
7.31
7.41
7.38
7.20
6.88
6.41
5.85
5.18
4.37
3.34
2.08
0.64
-0.82
-2.13
-3.20
-4.05
-4.83
-5.76
-7.00
-8.65
-10.59
-12.61
-14.36
-15.46
-15.59
-14.60
-12.61
-9.95
-7.06
-4.29
-1.85
0.26
2.14
3.83
5.26
6.28
6.82
6.91
6.72
6.48
6.39
6.53
6.91
7.45
8.07
8.71
9.27
9.65
9.77
9.53
8.94
8.03
6.91
5.69
4.53
3.52
2.71
2.05
1.42
0.68
-0.27
-1.40
-2.55
-3.59
-4.41
-5.12
-5.90
-7.00
-8.56
-10.53
-12.67
-14.65
-16.12
-16.79
-16.50
-15.24
-13.09
-10.31
-7.24
-4.26
-1.71
0.24
1.60
2.54
3.24
3.82
4.31
4.67
4.89
5.01
5.15
5.36
5.62
5.82
5.84
5.60
5.12
4.52
4.07
4.12
5.00
6.87
9.65
12.90
15.93
18.04
18.76
17.97
15.96
13.14
9.93
6.57
3.20
-0.05
-3.01
-5.48
-7.39
-8.81
-10.03
-11.37
-13.06
-15.10
-17.23
-19.01
-20.00
-19.85
-18.42
-15.84
-12.43
-8.71
-5.15
-2.15
0.11
1.70
2.82
3.69
4.45
5.11
5.59
5.85
5.97
6.09
6.40
6.98
7.75
8.56
9.20
9.58
9.75
9.85
10.04
10.36
10.72
10.98
11.02
10.79
10.37
9.90
9.43
8.98
8.52
8.00
7.40
6.74
5.97
5.07
4.01
2.79
1.46
0.07
-1.32
-2.76
-4.33
-6.11
-8.13
-10.29
-12.40
-14.19
-15.38
-15.73
-15.12
-13.61
-11.40
-8.82
-6.19
-3.75
-1.57
0.38
2.14
3.68
4.92
5.78
6.27
6.54
6.81
7.23
7.86
8.56
9.20
9.66
9.92
10.02
9.98
9.75
9.25
8.47
7.45
6.32
5.23
4.27
3.42
2.65
1.91
1.21
0.56
-0.10
-0.83
-1.76
-2.92
-4.23
-5.50
-6.53
-7.22
-7.64
-8.01
-8.56
-9.41
-10.46
-11.42
-11.98
-11.85
-10.97
-9.42
-7.41
-5.19
-2.97
-0.91
0.87
2.30
3.34
4.02
4.42
4.65
4.78
4.86
4.91
4.96
5.04
5.18
5.36
5.51
5.55
5.41
5.08
4.65
4.21
3.83
3.50
3.14
2.68
2.05
1.25
0.36
-0.50
-1.25
-1.85
-2.35
-2.82
-3.38
-4.08
-4.94
-5.89
-6.82
-7.68
-8.52
-9.47
-10.64
-12.07
-13.58
-14.87
-15.55
-15.35
-14.19
-12.18
-9.61
-6.81
-4.08
-1.63
0.39
1.92
2.96
3.57
3.87
3.99
4.06
4.16
4.31
4.50
4.64
4.65
4.48
4.12
3.62
3.08
2.57
2.13
1.74
1.34
0.88
0.34
-0.21
-0.67
-1.01
-1.23
-1.49
-2.02
-2.99
-4.44
-6.17
-7.82
-8.96
-9.32
-8.84
-7.69
-6.19
-4.67
-3.39
-2.54
-2.20
-2.38
-2.94
-3.62
-4.12
-4.20
-3.78
-3.04
-2.21
-1.56
-1.12
-0.76
-0.29
0.43
1.40
2.48
3.54
4.48
5.28
5.95
6.43
6.68
6.66
6.40
6.01
5.64
5.41
5.37
5.52
5.81
6.19
6.57
6.87
7.01
6.93
6.62
6.16
5.69
5.29
5.01
4.81
4.58
4.24
3.72
3.03
2.24
1.44
0.65
-0.12
-0.94
-1.92
-3.15
-4.65
-6.30
-7.87
-9.03
-9.49
-9.08
-7.86
-6.12
-4.23
-2.53
-1.23
-0.34
0.23
0.61
0.89
1.12
1.30
1.50
1.81
2.27
2.86
3.47
3.97
4.28
4.43
4.54
4.74
5.10
5.59
6.06
6.35
6.34
6.02
5.51
5.00
4.68
4.65
4.88
5.14
5.14
4.61
3.42
1.66
-0.38
-2.35
-3.99
-5.23
-6.21
-7.15
-8.28
-9.73
-11.44
-13.18
-14.68
-15.62
-15.76
-15.00
-13.39
-11.15
-8.63
-6.18
-4.10
-2.51
-1.43
-0.75
-0.35
-0.15
-0.11
-0.15
-0.20
-0.08
0.37
1.24
2.48
3.90
5.29
6.42
7.22
7.71
7.97
8.09
8.06
7.80
7.21
6.26
4.98
3.52
2.05
0.72
-0.43
-1.44
-2.44
-3.50
-4.64
-5.79
-6.86
-7.79
-8.60
-9.28
-9.85
-10.18
-10.09
-9.40
-8.01
-6.01
-3.61
-1.13
1.16
3.05
4.44
5.31
5.65
5.49
4.92
4.09
3.15
2.26
1.51
0.97
0.65
0.59
0.81
1.30
1.96
2.59
2.99
3.01
2.65
2.02
1.26
0.51
-0.23
-1.03
-1.95
-3.01
-4.10
-5.05
-5.72
-6.03
-6.05
-5.95
-5.96
-6.28
-7.08
-8.39
-10.09
-11.93
-13.51
-14.44
-14.45
-13.48
-11.73
-9.54
-7.29
-5.27
-3.62
-2.32
-1.32
-0.48
0.28
1.04
1.84
2.69
3.55
4.33
4.96
5.40
5.65
5.80
5.97
6.23
6.60
6.97
7.20
7.18
6.88
6.32
5.59
4.78
3.88
2.85
1.65
0.30
-1.13
-2.52
-3.76
-4.77
-5.56
-6.17
-6.70
-7.24
-7.93
-8.85
-10.00
-11.26
-12.42
-13.28
-13.68
-13.51
-12.70
-11.17
-8.93
-6.11
-3.02
-0.05
2.40
4.09
5.00
5.30
5.23
5.07
5.02
5.26
5.88
6.90
8.20
9.57
10.76
11.57
12.01
12.23
12.47
12.93
13.66
14.54
15.29
15.59
15.23
14.12
12.32
10.00
7.35
4.59
1.95
-0.36
-2.12
-3.21
-3.67
-3.72
-3.68
-3.81
-4.08
-4.08
-3.17
-0.73
3.44
9.00
15.04
20.49
24.44
26.50
26.80
25.87
24.29
22.51
20.68
18.78
16.67
14.27
11.59
8.72
5.79
2.90
0.10
-2.61
-5.18
-7.46
-9.23
-10.29
-10.58
-10.29
-9.75
-9.35
-9.30
-9.59
-10.05
-10.50
-10.90
-11.34
-11.99
-12.92
-14.09
-15.38
-16.68
-17.91
-19.10
-20.22
-21.25
-22.15
-22.94
-23.66
-24.34
-24.93
-25.23
-25.01
-24.02
-22.17
-19.54
-16.29
-12.63
-8.77
-4.90
-1.19
2.15
4.99
7.26
9.00
10.37
11.55
12.68
13.81
14.92
15.86
16.48
16.64
16.36
15.76
15.11
14.68
14.64
14.96
15.47
15.95
16.20
16.18
15.93
15.52
15.01
14.37
13.58
12.58
11.28
9.59
7.33
4.44
1.02
-2.62
-5.96
-8.51
-9.96
-10.29
-9.80
-8.88
-7.90
-7.08
-6.42
-5.91
-5.55
-5.42
-5.73
-6.60
-8.11
-10.11
-12.29
-14.30
-15.87
-16.90
-17.42
-17.61
-17.65
-17.68
-17.78
-17.99
-18.37
-18.97
-19.87
-21.14
-22.83
-24.95
-27.41
-30.03
-32.54
-34.70
-36.35
-37.61
-38.73
-40.06
-41.79
-43.78
-45.53
-46.24
-45.01
-41.04
-33.86
-23.52
-10.68
3.47
17.49
30.09
40.47
48.54
54.72
59.65
63.83
67.47
70.45
72.54
73.58
73.62
72.83
71.42
69.58
67.44
65.06
62.49
59.75
56.83
53.70
50.33
46.70
42.82
38.70
34.34
29.75
25.02
20.29
15.82
11.86
8.62
6.08
4.05
2.20
0.16
-2.35
-5.49
-9.30
-13.66
-18.36
-23.08
-27.46
-31.12
-33.82
-35.46
-36.07
-35.82
-34.88
-33.35
-31.26
-28.62
-25.51
-22.09
-18.58
-15.21
-12.13
-9.35
-6.76
-4.17
-1.43
1.43
4.20
6.52
8.02
8.44
7.74
6.03
3.51
0.39
-3.16
-6.96
-10.79
-14.33
-17.36
-19.76
-21.67
-23.39
-25.22
-27.26
-29.29
-30.85
-31.39
-30.57
-28.37
-25.06
-21.13
-17.05
-13.21
-9.82
-7.04
-4.98
-3.76
-3.41
-3.76
-4.39
-4.70
-4.12
-2.35
0.52
3.94
7.16
9.51
10.71
10.90
10.57
10.29
10.43
11.04
11.88
12.62
13.00
12.94
12.55
12.02
11.50
11.04
10.61
10.16
9.70
9.33
9.11
9.09
9.16
9.10
8.67
7.80
6.59
5.29
4.11
3.10
2.11
0.88
-0.74
-2.69
-4.72
-6.50
-7.88
-8.95
-9.97
-11.21
-12.77
-14.41
-15.67
-16.09
-15.37
-13.59
-11.11
-8.42
-5.92
-3.81
-2.06
-0.58
0.70
1.75
2.49
2.87
2.94
2.81
2.62
2.46
2.39
2.42
2.54
2.74
3.00
3.27
3.48
3.59
3.61
3.56
3.50
3.46
3.44
3.42
3.34
3.11
2.70
2.07
1.26
0.38
-0.44
-1.09
-1.56
-1.92
-2.31
-2.89
-3.77
-5.01
-6.57
-8.34
-10.12
-11.65
-12.62
-12.80
-12.06
-10.48
-8.32
-5.92
-3.59
-1.54
0.19
1.60
2.77
3.73
4.52
5.12
5.55
5.81
5.91
5.86
5.67
5.33
4.92
4.52
4.23
4.14
4.25
4.50
4.74
4.82
4.63
4.15
3.49
2.85
2.37
2.14
2.10
2.10
2.00
1.68
1.16
0.48
-0.25
-1.01
-1.82
-2.74
-3.82
-5.05
-6.36
-7.64
-8.77
-9.62
-10.03
-9.87
-9.02
-7.50
-5.44
-3.14
-0.92
0.92
2.23
3.02
3.40
3.55
3.59
3.62
3.63
3.63
3.59
3.49
3.36
3.29
3.38
3.69
4.22
4.83
5.34
5.58
5.47
5.08
4.56
4.08
3.70
3.42
3.16
2.83
2.44
1.98
1.50
1.02
0.56
0.13
-0.22
-0.47
-0.63
-0.83
-1.23
-2.00
-3.20
-4.77
-6.52
-8.24
-9.66
-10.63
-10.99
-10.68
-9.65
-7.96
-5.74
-3.23
-0.72
1.54
3.37
4.73
5.66
6.28
6.69
6.93
7.04
7.05
7.02
7.01
7.06
7.19
7.38
7.54
7.59
7.46
7.09
6.53
5.85
5.16
4.62
4.28
4.16
4.17
4.21
4.15
3.90
3.40
2.61
1.51
0.14
-1.37
-2.86
-4.18
-5.25
-6.16
-7.09
-8.25
-9.71
-11.37
-12.96
-14.11
-14.51
-13.95
-12.48
-10.26
-7.61
-4.90
-2.47
-0.59
0.63
1.22
1.37
1.33
1.32
1.46
1.71
2.00
2.21
2.31
2.36
2.46
2.67
3.00
3.39
3.70
3.82
3.67
3.23
2.55
1.78
1.05
0.52
0.25
0.19
0.21
0.14
-0.12
-0.58
-1.18
-1.82
-2.47
-3.15
-3.95
-4.97
-6.27
-7.82
-9.56
-11.33
-12.91
-14.03
-14.37
-13.73
-12.07
-9.60
-6.71
-3.83
-1.32
0.68
2.15
3.19
3.89
4.30
4.49
4.57
4.64
4.82
5.12
5.47
5.73
5.79
5.64
5.34
5.03
4.82
4.75
4.76
4.77
4.64
4.35
3.89
3.35
2.80
2.30
1.84
1.36
0.75
-0.04
-0.98
-1.97
-2.81
-3.36
-3.61
-3.65
-3.72
-4.01
-4.65
-5.58
-6.65
-7.68
-8.50
-8.99
-9.05
-8.61
-7.60
-6.03
-4.01
-1.82
0.23
1.90
3.10
3.94
4.60
5.26
5.96
6.63
7.14
7.44
7.54
7.58
7.70
7.96
8.32
8.63
8.75
8.64
8.36
8.05
7.90
7.96
8.18
8.42
8.50
8.36
8.02
7.60
7.20
6.88
6.57
6.18
5.61
4.84
3.94
3.02
2.23
1.58
1.02
0.37
-0.55
-1.83
-3.39
-4.98
-6.29
-7.07
-7.21
-6.79
-6.01
-5.06
-4.05
-3.04
-1.97
-0.88
0.17
1.00
1.49
1.56
1.30
0.93
0.67
0.68
0.94
1.35
1.73
2.02
2.22
2.46
2.81
3.30
3.86
4.35
4.65
4.69
4.44
3.97
3.34
2.62
1.89
1.19
0.56
-0.00
-0.50
-0.97
-1.42
-1.88
-2.37
-2.89
-3.50
-4.21
-5.07
-6.09
-7.26
-8.51
-9.67
-10.52
-10.80
-10.37
-9.21
-7.48
-5.48
-3.51
-1.81
-0.53
0.32
0.82
1.07
1.19
1.27
1.37
1.50
1.64
1.73
1.74
1.65
1.49
1.35
1.29
1.31
1.37
1.44
1.49
1.52
1.57
1.67
1.80
1.95
2.06
2.08
1.99
1.78
1.46
1.04
0.53
-0.04
-0.66
-1.27
-1.84
-2.41
-3.04
-3.84
-4.91
-6.25
-7.76
-9.20
-10.27
-10.69
-10.30
-9.13
-7.39
-5.42
-3.56
-2.00
-0.85
-0.05
0.54
1.03
1.50
1.95
2.39
2.78
3.16
3.53
3.93
4.36
4.80
5.20
5.48
5.57
5.49
5.27
5.08
5.07
5.29
5.71
6.12
6.27
5.98
5.24
4.24
3.27
2.58
2.24
2.15
2.07
1.85
1.44
0.97
0.59
0.36
0.18
-0.18
-0.92
-2.05
-3.34
-4.38
-4.81
-4.48
-3.51
-2.26
-1.13
-0.36
0.03
0.25
0.57
1.14
1.91
2.69
3.22
3.37
3.15
2.74
2.39
2.29
2.54
3.07
3.76
4.42
4.92
5.23
5.36
5.38
5.28
5.02
4.55
3.83
2.93
2.00
1.22
0.67
0.34
0.03
-0.44
-1.19
-2.24
-3.41
-4.47
-5.25
-5.69
-5.87
-6.02
-6.36
-7.05
-8.06
-9.19
-10.17
-10.73
-10.73
-10.22
-9.37
-8.36
-7.37
-6.44
-5.56
-4.71
-3.93
-3.24
-2.73
-2.39
-2.18
-2.06
-1.98
-1.92
-1.93
-2.00
-2.06
-2.01
-1.70
-1.06
-0.13
0.92
1.89
2.57
2.97
3.16
3.27
3.39
3.46
3.40
3.09
2.55
1.87
1.17
0.53
-0.11
-0.83
-1.76
-2.93
-4.31
-5.81
-7.32
-8.78
-10.06
-11.02
-11.42
-11.11
-10.02
-8.32
-6.31
-4.40
-2.85
-1.76
-1.00
-0.39
0.22
0.86
1.46
1.92
2.20
2.37
2.57
2.90
3.39
3.95
4.45
4.78
4.91
4.89
4.80
4.72
4.63
4.49
4.24
3.87
3.41
2.91
2.41
1.91
1.36
0.72
-0.03
-0.84
-1.62
-2.27
-2.73
-3.04
-3.34
-3.78
-4.51
-5.56
-6.85
-8.16
-9.14
-9.49
-9.04
-7.82
-6.09
-4.20
-2.48
-1.11
-0.10
0.73
1.57
2.52
3.60
4.68
5.59
6.23
6.52
6.50
6.23
5.82
5.35
4.95
4.68
4.61
4.72
4.90
5.05
5.01
4.75
4.28
3.76
3.35
3.14
3.15
3.23
3.25
3.05
2.57
1.87
1.04
0.17
-0.71
-1.61
-2.58
-3.67
-4.86
-6.17
-7.53
-8.92
-10.26
-11.41
-12.21
-12.52
-12.35
-11.84
-11.27
-10.86
-10.69
-10.62
-10.36
-9.58
-8.06
-5.80
-2.91
0.40
3.92
7.47
10.84
13.86
16.33
18.14
19.24
19.72
19.73
19.41
18.91
18.28
17.56
16.73
15.73
14.55
13.19
11.74
10.28
8.93
7.71
6.60
5.53
4.39
3.17
1.91
0.67
-0.45
-1.41
-2.21
-2.90
-3.55
-4.26
-5.13
-6.25
-7.60
-9.07
-10.43
-11.37
-11.70
-11.36
-10.46
-9.20
-7.79
-6.40
-5.16
-4.14
-3.44
-3.11
-3.09
-3.25
-3.40
-3.33
-2.98
-2.36
-1.62
-0.90
-0.30
0.16
0.54
0.95
1.48
2.20
3.09
4.03
4.83
5.32
5.38
5.08
4.59
4.14
3.88
3.80
3.77
3.60
3.15
2.43
1.53
0.61
-0.26
-1.11
-2.08
-3.31
-4.86
-6.63
-8.44
-10.02
-11.14
-11.67
-11.56
-10.89
-9.76
-8.32
-6.71
-5.07
-3.56
-2.35
-1.56
-1.22
-1.25
-1.47
-1.68
-1.75
-1.66
-1.48
-1.27
-1.01
-0.64
-0.07
0.72
1.62
2.47
3.11
3.45
3.51
3.33
2.95
2.33
1.45
0.26
-1.21
-2.86
-4.58
-6.24
-7.71
-8.89
-9.77
-10.42
-11.07
-11.98
-13.40
-15.38
-17.78
-20.17
-22.03
-22.84
-22.29
-20.35
-17.34
-13.79
-10.32
-7.34
-4.88
-2.62
-0.02
3.39
7.74
12.74
17.79
22.28
25.86
28.51
30.45
31.95
33.23
34.39
35.57
36.91
38.52
40.20
41.38
41.19
38.84
33.99
27.06
19.08
11.33
4.82
-0.02
-3.33
-5.59
-7.33
-8.96
-10.75
-12.98
-15.95
-19.88
-24.80
-30.33
-35.70
-39.92
-42.12
-41.85
-39.25
-35.00
-30.09
-25.41
-21.38
-17.97
-14.71
-11.05
-6.66
-1.57
3.84
9.07
13.63
17.27
19.87
21.47
22.13
21.96
21.17
19.98
18.65
17.35
16.09
14.67
12.85
10.39
7.22
3.43
-0.79
-5.23
-9.81
-14.43
-19.03
-23.45
-27.46
-30.90
-33.79
-36.28
-38.57
-40.70
-42.47
-43.49
-43.27
-41.49
-38.07
-33.13
-26.92
-19.68
-11.62
-2.95
5.98
14.64
22.45
28.99
34.25
38.70
43.15
48.28
54.27
60.47
65.70
68.73
68.92
66.62
63.01
59.55
57.20
56.13
55.70
55.01
53.49
51.23
48.79
46.80
45.45
44.27
42.19
38.07
31.01
20.65
7.20
-8.70
-26.16
-44.13
-61.44
-76.76
-88.71
-96.00
-97.70
-93.48
-83.83
-70.07
-54.11
-38.04
-23.63
-11.92
-3.01
3.70
9.15
14.13
18.99
23.55
27.36
29.97
31.22
31.28
30.58
29.64
28.84
28.37
28.08
27.46
25.62
21.50
14.13
3.13
-11.02
-27.00
-42.99
-57.30
-68.91
-77.62
-83.92
-88.51
-91.90
-94.25
-95.39
-95.02
-92.82
-88.56
-82.11
-73.48
-63.00
-51.33
-39.48
-28.58
-19.50
-12.60
-7.48
-3.23
1.24
6.59
12.85
19.44
25.48
30.31
33.92
36.91
40.21
44.68
50.62
57.68
65.02
71.58
76.49
79.24
79.72
78.11
74.75
70.11
64.69
59.04
53.66
48.93
45.02
41.83
39.09
36.51
33.82
30.97
27.99
25.02
22.16
19.50
17.08
14.90
12.95
11.17
9.50
7.87
6.27
4.75
3.42
2.36
1.56
0.95
0.42
-0.09
-0.57
-0.93
-1.11
-1.10
-0.99
-0.89
-0.92
-1.19
-1.75
-2.62
-3.79
-5.23
-6.81
-8.40
-9.87
-11.15
-12.20
-13.01
-13.52
-13.58
-13.04
-11.78
-9.79
-7.24
-4.40
-1.63
0.73
2.40
3.20
3.09
2.18
0.68
-1.11
-2.86
-4.30
-5.30
-5.89
-6.25
-6.68
-7.38
-8.44
-9.72
-10.98
-11.94
-12.49
-12.72
-12.92
-13.41
-14.42
-15.98
-17.91
-19.97
-21.94
-23.78
-25.59
-27.56
-29.84
-32.43
-35.17
-37.80
-40.03
-41.62
-42.36
-42.19
-41.10
-39.28
-36.95
-34.42
-31.89
-29.42
-26.93
-24.24
-21.22
-17.85
-14.24
-10.56
-7.00
-3.73
-0.81
1.71
3.92
5.94
7.93
9.96
12.02
13.97
15.67
17.01
17.99
18.74
19.39
20.00
20.52
20.84
20.83
20.48
19.93
19.44
19.34
19.87
21.12
22.89
24.79
26.34
27.24
27.49
27.48
27.80
29.01
31.34
34.68
38.58
42.45
45.81
48.43
50.28
51.43
51.90
51.60
50.35
47.95
44.37
39.77
34.49
28.98
23.69
18.91
14.75
11.11
7.65
4.00
-0.18
-5.06
-10.59
-16.55
-22.61
-28.39
-33.60
-37.96
-41.24
-43.26
-43.94
-43.27
-41.38
-38.47
-34.79
-30.51
-25.77
-20.64
-15.22
-9.57
-3.71
2.34
8.62
15.08
21.62
28.08
34.36
40.44
46.48
52.69
59.11
65.46
71.11
75.17
76.74
75.22
70.37
62.36
51.65
38.90
25.01
11.06
-1.83
-12.64
-20.91
-26.82
-31.17
-35.05
-39.30
-44.12
-49.04
-53.14
-55.64
-56.24
-55.34
-53.77
-52.38
-51.70
-51.71
-51.94
-51.71
-50.30
-47.07
-41.48
-33.21
-22.50
-10.36
1.23
9.88
13.60
11.73
5.47
-2.42
-8.76
-11.28
-9.51
-4.73
0.87
5.37
7.88
8.57
8.16
7.16
5.58
3.07
-0.60
-5.09
-9.54
-12.94
-14.60
-14.46
-13.09
-11.30
-9.71
-8.59
-7.74
-6.83
-5.53
-3.72
-1.49
0.96
3.44
5.82
8.02
10.09
12.04
13.91
15.73
17.48
19.11
20.53
21.60
22.18
22.12
21.30
19.70
17.39
14.56
11.42
8.16
4.85
1.50
-1.93
-5.44
-8.90
-12.14
-14.99
-17.36
-19.24
-20.65
-21.58
-21.95
-21.66
-20.73
-19.25
-17.41
-15.39
-13.32
-11.23
-9.17
-7.24
-5.56
-4.25
-3.34
-2.77
-2.47
-2.47
-2.91
-4.01
-5.92
-8.51
-11.50
-14.49
-17.17
-19.43
-21.29
-22.86
-24.20
-25.33
-26.22
-26.96
-27.67
-28.51
-29.59
-30.89
-32.26
-33.46
-34.26
-34.49
-34.13
-33.33
-32.34
-31.44
-30.76
-30.23
-29.49
-28.05
-25.44
-21.39
-15.98
-9.59
-2.86
3.54
9.04
13.32
16.32
18.21
19.26
19.72
19.70
19.19
18.16
16.65
14.83
13.00
11.38
10.09
9.12
8.41
7.98
7.95
8.45
9.35
10.32
10.75
10.16
8.38
5.64
2.53
-0.40
-2.81
-4.72
-6.30
-7.69
-8.89
-9.75
-10.15
-10.08
-9.73
-9.33
-8.98
-8.60
-7.94
-6.74
-4.90
-2.57
-0.08
2.16
3.89
5.02
5.66
5.97
6.03
5.94
5.70
5.41
5.20
5.22
5.54
6.08
6.69
7.21
7.56
7.73
7.74
7.64
7.38
6.98
6.45
5.89
5.38
4.92
4.39
3.63
2.55
1.17
-0.34
-1.75
-2.91
-3.77
-4.43
-5.04
-5.72
-6.49
-7.30
-8.02
-8.49
-8.57
-8.13
-7.11
-5.53
-3.52
-1.26
1.06
3.32
5.40
7.20
8.64
9.61
10.10
10.18
10.01
9.81
9.72
9.81
10.03
10.27
10.44
10.51
10.48
10.36
10.15
9.84
9.42
8.88
8.29
7.64
6.94
6.17
5.36
4.53
3.75
3.03
2.31
1.50
0.48
-0.80
-2.33
-4.02
-5.77
-7.47
-9.06
-10.42
-11.36
-11.70
-11.30
-10.18
-8.54
-6.71
-5.01
-3.62
-2.56
-1.69
-0.88
-0.03
0.81
1.55
2.06
2.27
2.19
1.94
1.70
1.67
1.98
2.63
3.49
4.32
4.91
5.16
5.09
4.80
4.37
3.83
3.13
2.27
1.30
0.34
-0.50
-1.21
-1.93
-2.86
-4.17
-5.88
-7.82
-9.73
-11.37
-12.66
-13.60
-14.27
-14.63
-14.54
-13.78
-12.18
-9.71
-6.55
-3.01
0.49
3.60
6.11
7.95
9.17
9.91
10.28
10.32
10.05
9.45
8.61
7.72
7.01
6.66
6.62
6.72
6.67
6.31
5.66
4.92
4.32
3.98
3.86
3.81
3.67
3.30
2.69
1.88
0.94
-0.01
-0.89
-1.60
-2.10
-2.50
-2.94
-3.56
-4.46
-5.57
-6.69
-7.57
-7.98
-7.76
-6.88
-5.43
-3.53
-1.38
0.83
2.96
4.86
6.48
7.74
8.61
9.06
9.10
8.79
8.27
7.74
7.38
7.25
7.35
7.58
7.81
7.93
7.91
7.80
7.66
7.57
7.54
7.55
7.54
7.44
7.22
6.85
6.33
5.66
4.84
3.84
2.69
1.38
-0.07
-1.68
-3.47
-5.46
-7.60
-9.78
-11.78
-13.35
-14.25
-14.32
-13.54
-12.03
-9.99
-7.70
-5.41
-3.31
-1.47
0.10
1.50
2.81
4.07
5.25
6.23
6.89
7.19
7.19
7.03
6.91
6.99
7.32
7.82
8.30
8.58
8.53
8.13
7.44
6.60
5.73
4.95
4.29
3.80
3.44
3.16
2.86
2.44
1.77
0.78
-0.58
-2.26
-4.11
-5.95
-7.59
-8.95
-10.05
-10.97
-11.80
-12.48
-12.83
-12.63
-11.67
-9.91
-7.46
-4.61
-1.64
1.16
3.59
5.54
6.99
8.02
8.79
9.48
10.21
11.01
11.75
12.25
12.40
12.21
11.81
11.34
10.89
10.43
9.87
9.17
8.40
7.72
7.24
6.98
6.78
6.43
5.77
4.79
3.63
2.45
1.39
0.44
-0.47
-1.43
-2.50
-3.70
-5.01
-6.47
-8.09
-9.85
-11.70
-13.51
-15.10
-16.29
-16.89
-16.72
-15.68
-13.81
-11.25
-8.32
-5.38
-2.74
-0.60
1.03
2.25
3.23
4.10
4.95
5.79
6.57
7.28
7.92
8.51
9.09
9.69
10.25
10.72
10.99
10.99
10.75
10.36
9.95
9.63
9.43
9.28
9.05
8.65
8.09
7.40
6.65
5.83
4.84
3.55
1.91
-0.06
-2.18
-4.26
-6.14
-7.79
-9.30
-10.76
-12.25
-13.70
-14.93
-15.75
-15.96
-15.50
-14.41
-12.83
-10.92
-8.81
-6.63
-4.41
-2.28
-0.35
1.20
2.23
2.72
2.74
2.50
2.23
2.08
2.09
2.19
2.31
2.39
2.47
2.59
2.81
3.13
3.55
4.01
4.48
4.94
5.36
5.73
5.94
5.88
5.46
4.61
3.42
2.01
0.61
-0.60
-1.51
-2.12
-2.55
-2.97
-3.51
-4.23
-5.08
-5.95
-6.66
-7.05
-6.96
-6.32
-5.17
-3.63
-1.88
-0.12
1.54
3.02
4.33
5.55
6.74
7.95
9.18
10.34
11.32
11.96
12.20
12.01
11.52
10.91
10.39
10.07
9.98
10.03
10.09
10.04
9.78
9.22
8.36
7.19
5.79
4.26
2.72
1.21
-0.22
-1.59
-2.87
-4.04
-5.10
-6.05
-6.94
-7.85
-8.83
-9.88
-10.94
-11.94
-12.77
-13.41
-13.76
-13.71
-13.09
-11.76
-9.71
-7.12
-4.32
-1.68
0.53
2.24
3.57
4.69
5.74
6.70
7.40
7.70
7.53
7.01
6.39
5.93
5.76
5.87
6.12
6.36
6.47
6.42
6.26
6.04
5.78
5.49
5.14
4.71
4.23
3.75
3.35
3.03
2.76
2.45
1.98
1.30
0.43
-0.55
-1.49
-2.30
-2.98
-3.62
-4.40
-5.43
-6.71
-8.08
-9.25
-9.90
-9.86
-9.11
-7.87
-6.42
-4.98
-3.65
-2.37
-1.10
0.15
1.25
2.04
2.43
2.47
2.34
2.24
2.28
2.48
2.81
3.22
3.75
4.44
5.26
6.09
6.73
7.00
6.84
6.37
5.78
5.25
4.83
4.50
4.13
3.62
2.90
1.98
0.90
-0.29
-1.54
-2.75
-3.88
-4.85
-5.69
-6.51
-7.52
-8.86
-10.61
-12.67
-14.80
-16.72
-18.16
-18.93
-18.98
-18.34
-17.10
-15.39
-13.36
-11.19
-9.04
-7.05
-5.33
-3.93
-2.86
-2.09
-1.50
-0.97
-0.35
0.45
1.45
2.60
3.84
5.07
6.22
7.21
7.97
8.44
8.64
8.62
8.48
8.29
8.09
7.83
7.45
6.91
6.23
5.43
4.58
3.67
2.67
1.57
0.35
-0.98
-2.41
-3.93
-5.57
-7.26
-8.92
-10.31
-11.26
-11.61
-11.33
-10.53
-9.30
-7.78
-5.99
-3.93
-1.64
0.75
2.98
4.81
6.06
6.74
7.00
7.08
7.15
7.28
7.43
7.57
7.72
7.99
8.50
9.27
10.18
10.97
11.38
11.29
10.77
9.99
9.12
8.21
7.20
5.96
4.44
2.68
0.81
-1.03
-2.74
-4.36
-5.94
-7.53
-9.11
-10.56
-11.69
-12.31
-12.26
-11.49
-10.05
-8.13
-5.98
-3.89
-2.07
-0.62
0.45
1.22
1.79
2.24
2.65
3.06
3.48
3.85
4.12
4.21
4.10
3.82
3.43
2.95
2.44
1.83
1.12
0.34
-0.42
-1.03
-1.41
-1.59
-1.67
-1.75
-1.87
-1.94
-1.84
-1.48
-0.91
-0.36
-0.13
-0.50
-1.62
-3.36
-5.50
-7.64
-9.43
-10.63
-11.17
-11.10
-10.54
-9.62
-8.44
-7.07
-5.57
-4.04
-2.57
-1.19
0.07
1.24
2.30
3.22
3.98
4.59
5.12
5.63
6.17
6.70
7.09
7.23
7.09
6.73
6.34
6.11
6.12
6.35
6.60
6.73
6.57
6.09
5.34
4.43
3.45
2.44
1.43
0.39
-0.67
-1.75
-2.85
-3.95
-5.12
-6.39
-7.78
-9.25
-10.66
-11.77
-12.36
-12.27
-11.46
-10.05
-8.29
-6.44
-4.70
-3.18
-1.89
-0.80
0.13
0.93
1.66
2.37
3.18
4.10
5.09
6.02
6.70
7.00
6.96
6.76
6.63
6.74
7.14
7.73
8.34
8.79
8.99
8.92
8.58
8.01
7.23
6.25
5.08
3.77
2.38
1.03
-0.18
-1.18
-1.94
-2.56
-3.14
-3.86
-4.83
-6.12
-7.65
-9.28
-10.76
-11.81
-12.21
-11.89
-10.90
-9.43
-7.70
-5.92
-4.18
-2.56
-1.03
0.36
1.59
2.64
3.50
4.20
4.77
5.22
5.53
5.69
5.74
5.74
5.81
6.04
6.44
6.94
7.37
7.54
7.31
6.59
5.46
4.06
2.61
1.33
0.30
-0.49
-1.20
-2.06
-3.34
-5.22
-7.75
-10.78
-13.97
-16.93
-19.29
-20.87
-21.68
-21.92
-21.83
-21.56
-21.12
-20.35
-19.05
-17.11
-14.58
-11.68
-8.72
-6.01
-3.74
-1.97
-0.63
0.43
1.34
2.16
2.86
3.36
3.60
3.63
3.60
3.71
4.11
4.85
5.82
6.81
7.66
8.25
8.60
8.81
8.94
9.02
8.95
8.62
7.95
6.93
5.70
4.40
3.17
2.05
1.08
0.21
-0.56
-1.23
-1.78
-2.28
-2.84
-3.59
-4.60
-5.80
-6.97
-7.79
-8.00
-7.47
-6.32
-4.80
-3.24
-1.85
-0.65
0.40
1.37
2.29
3.09
3.70
4.14
4.56
5.09
5.84
6.74
7.63
8.34
8.77
9.01
9.18
9.39
9.64
9.81
9.76
9.38
8.73
7.92
7.13
6.54
6.23
6.17
6.24
6.23
5.96
5.29
4.23
2.92
1.57
0.35
-0.67
-1.56
-2.48
-3.56
-4.81
-6.14
-7.35
-8.25
-8.72
-8.71
-8.29
-7.53
-6.56
-5.49
-4.40
-3.36
-2.44
-1.71
-1.25
-1.10
-1.16
-1.25
-1.09
-0.42
0.82
2.54
4.46
6.26
7.67
8.59
9.05
9.16
9.06
8.81
8.43
7.96
7.42
6.87
6.35
5.88
5.44
4.98
4.41
3.69
2.82
1.79
0.64
-0.60
-1.89
-3.21
-4.59
-6.02
-7.53
-9.08
-10.50
-11.54
-11.93
-11.51
-10.32
-8.59
-6.63
-4.71
-2.93
-1.24
0.44
2.11
3.70
4.99
5.87
6.31
6.44
6.45
6.51
6.68
6.85
6.88
6.68
6.28
5.83
5.57
5.60
5.90
6.23
6.34
6.07
5.44
4.65
3.93
3.43
3.10
2.77
2.27
1.55
0.72
-0.05
-0.60
-0.93
-1.25
-1.80
-2.79
-4.24
-6.00
-7.81
-9.34
-10.38
-10.78
-10.51
-9.59
-8.16
-6.40
-4.61
-3.02
-1.76
-0.82
-0.05
0.69
1.50
2.31
2.96
3.23
2.97
2.18
1.01
-0.29
-1.40
-2.09
-2.24
-1.85
-1.03
0.10
1.42
2.81
4.16
5.34
6.22
6.68
6.69
6.24
5.41
4.31
3.04
1.73
0.49
-0.61
-1.54
-2.33
-3.09
-3.93
-4.97
-6.21
-7.58
-8.87
-9.84
-10.25
-9.98
-9.05
-7.64
-6.01
-4.40
-2.97
-1.78
-0.77
0.10
0.83
1.39
1.66
1.61
1.29
0.86
0.51
0.38
0.50
0.78
1.12
1.44
1.78
2.23
2.83
3.57
4.29
4.81
4.98
4.78
4.32
3.74
3.14
2.52
1.81
0.94
-0.08
-1.17
-2.23
-3.21
-4.22
-5.37
-6.75
-8.28
-9.72
-10.74
-11.07
-10.63
-9.54
-8.02
-6.31
-4.59
-2.91
-1.30
0.23
1.62
2.78
3.64
4.19
4.50
4.72
5.01
5.47
6.12
6.87
7.56
8.04
8.23
8.14
7.93
7.74
7.66
7.71
7.77
7.73
7.43
6.84
5.99
4.98
3.92
2.89
1.90
0.88
-0.21
-1.42
-2.67
-3.86
-4.90
-5.78
-6.61
-7.45
-8.28
-8.92
-9.13
-8.72
-7.68
-6.27
-4.83
-3.64
-2.72
-1.94
-1.03
0.15
1.51
2.79
3.71
4.09
4.03
3.76
3.59
3.70
4.07
4.55
4.97
5.24
5.40
5.55
5.72
5.85
5.79
5.42
4.76
3.96
3.23
2.71
2.37
2.07
1.62
0.97
0.17
-0.63
-1.32
-1.86
-2.32
-2.82
-3.47
-4.34
-5.42
-6.60
-7.69
-8.36
-8.35
-7.52
-5.95
-3.94
-1.90
-0.19
1.02
1.76
2.18
2.48
2.72
2.91
3.00
2.99
2.93
2.91
3.03
3.32
3.75
4.25
4.73
5.14
5.45
5.69
5.90
6.15
6.44
6.76
7.00
7.02
6.73
6.07
5.11
3.99
2.84
1.75
0.70
-0.33
-1.32
-2.20
-2.88
-3.34
-3.73
-4.26
-5.16
-6.49
-8.06
-9.55
-10.57
-10.85
-10.35
-9.21
-7.70
-6.10
-4.61
-3.32
-2.23
-1.34
-0.60
-0.00
0.46
0.78
1.00
1.15
1.32
1.58
1.95
2.39
2.76
2.98
2.97
2.84
2.68
2.64
2.74
2.88
2.88
2.57
1.95
1.12
0.31
-0.31
-0.69
-0.91
-1.17
-1.62
-2.32
-3.21
-4.20
-5.20
-6.19
-7.20
-8.25
-9.28
-10.16
-10.70
-10.75
-10.24
-9.22
-7.84
-6.27
-4.65
-3.08
-1.61
-0.25
0.95
1.95
2.71
3.23
3.53
3.66
3.69
3.69
3.75
3.94
4.30
4.83
5.46
6.08
6.53
6.72
6.59
6.21
5.67
5.09
4.55
4.04
3.52
2.92
2.23
1.49
0.75
0.06
-0.59
-1.26
-2.01
-2.86
-3.78
-4.70
-5.53
-6.22
-6.75
-7.10
-7.21
-7.02
-6.48
-5.60
-4.45
-3.18
-1.88
-0.68
0.40
1.34
2.12
2.69
3.02
3.08
2.90
2.58
2.26
2.06
2.07
2.31
2.71
3.18
3.66
4.10
4.49
4.83
5.10
5.25
5.20
4.92
4.39
3.67
2.87
2.10
1.49
1.06
0.77
0.56
0.33
0.03
-0.30
-0.59
-0.79
-0.93
-1.13
-1.56
-2.35
-3.50
-4.86
-6.13
-7.01
-7.33
-7.09
-6.45
-5.66
-4.91
-4.32
-3.87
-3.48
-3.06
-2.56
-1.94
-1.22
-0.47
0.25
0.87
1.34
1.66
1.89
2.14
2.51
3.07
3.83
4.70
5.54
6.15
6.39
6.21
5.68
4.95
4.20
3.51
2.88
2.24
1.51
0.70
-0.07
-0.67
-0.96
-0.93
-0.66
-0.32
-0.08
-0.09
-0.42
-1.06
-1.95
-3.00
-4.13
-5.24
-6.21
-6.88
-7.08
-6.76
-5.93
-4.75
-3.47
-2.33
-1.51
-1.03
-0.82
-0.76
-0.71
-0.65
-0.56
-0.43
-0.24
0.07
0.50
1.04
1.59
2.03
2.25
2.24
2.07
1.93
1.96
2.23
2.67
3.14
3.51
3.75
3.91
4.07
4.24
4.35
4.27
3.92
3.27
2.42
1.52
0.71
0.04
-0.52
-1.06
-1.71
-2.60
-3.80
-5.28
-6.90
-8.38
-9.45
-9.93
-9.84
-9.39
-8.81
-8.27
-7.77
-7.21
-6.49
-5.64
-4.80
-4.17
-3.80
-3.65
-3.52
-3.25
-2.76
-2.09
-1.37
-0.71
-0.15
0.31
0.72
1.06
1.30
1.41
1.36
1.23
1.07
0.96
0.92
0.90
0.82
0.63
0.28
-0.15
-0.62
-1.07
-1.51
-1.97
-2.49
-3.07
-3.70
-4.38
-5.12
-5.93
-6.76
-7.52
-8.01
-8.04
-7.51
-6.46
-5.08
-3.57
-2.17
-1.00
-0.11
0.53
0.97
1.29
1.54
1.84
2.21
2.66
3.13
3.56
3.89
4.13
4.35
4.62
4.93
5.25
5.45
5.45
5.20
4.76
4.22
3.68
3.18
2.68
2.10
1.43
0.71
0.06
-0.43
-0.74
-0.95
-1.25
-1.81
-2.71
-3.91
-5.24
-6.48
-7.37
-7.78
-7.64
-7.03
-6.12
-5.12
-4.17
-3.31
-2.48
-1.50
-0.32
1.01
2.29
3.26
3.73
3.71
3.41
3.12
3.08
3.38
3.93
4.54
5.06
5.41
5.66
5.86
6.08
6.27
6.34
6.20
5.76
5.04
4.12
3.08
2.05
1.12
0.34
-0.24
-0.70
-1.15
-1.71
-2.48
-3.47
-4.61
-5.80
-6.92
-7.86
-8.51
-8.75
-8.46
-7.59
-6.20
-4.48
-2.72
-1.13
0.22
1.34
2.36
3.29
4.12
4.72
5.01
5.03
4.91
4.81
4.86
5.06
5.32
5.53
5.62
5.58
5.51
5.47
5.52
5.58
5.57
5.35
4.84
4.08
3.14
2.17
1.27
0.53
-0.08
-0.57
-1.04
-1.54
-2.14
-2.87
-3.72
-4.68
-5.74
-6.86
-8.02
-9.12
-10.03
-10.53
-10.46
-9.76
-8.50
-6.88
-5.16
-3.53
-2.09
-0.88
0.10
0.88
1.51
2.00
2.42
2.83
3.29
3.78
4.28
4.72
5.04
5.25
5.35
5.40
5.46
5.53
5.59
5.55
5.33
4.83
4.04
3.03
1.94
0.96
0.26
-0.07
-0.02
0.31
0.74
1.09
1.15
0.82
0.07
-1.07
-2.45
-3.92
-5.26
-6.30
-6.86
-6.85
-6.26
-5.17
-3.74
-2.18
-0.68
0.69
1.85
2.81
3.53
3.92
3.88
3.41
2.58
1.60
0.77
0.31
0.26
0.56
1.00
1.40
1.66
1.81
1.94
2.11
2.34
2.53
2.56
2.36
1.96
1.46
1.02
0.74
0.62
0.52
0.21
-0.53
-1.80
-3.55
-5.57
-7.60
-9.42
-10.90
-12.09
-13.17
-14.33
-15.74
-17.44
-19.32
-21.14
-22.64
-23.61
-24.09
-24.31
-24.78
-26.02
-28.47
-32.12
-36.35
-39.91
-41.15
-38.52
-31.27
-19.94
-6.38
6.81
17.20
23.51
25.96
26.08
25.91
27.13
30.71
36.87
45.55
56.68
70.17
85.71
102.64
120.06
137.20
153.56
168.76
181.99
191.80
196.37
194.29
185.52
171.66
155.50
139.72
125.75
113.26
100.62
86.03
68.57
48.61
27.64
7.56
-9.85
-23.22
-31.62
-34.58
-32.29
-25.86
-17.48
-10.15
-6.94
-10.04
-19.93
-35.20
-52.98
-70.01
-83.55
-92.11
-95.64
-95.33
-92.98
-90.42
-88.96
-89.16
-90.82
-93.17
-95.17
-95.89
-94.73
-91.46
-86.16
-78.97
-70.00
-59.41
-47.49
-34.84
-22.23
-10.43
0.16
9.45
17.50
23.92
27.68
27.18
21.01
8.82
-8.28
-28.02
-47.78
-65.49
-79.93
-90.46
-96.63
-98.16
-95.25
-88.80
-80.01
-69.54
-56.85
-40.41
-18.85
7.47
35.83
61.83
81.23
91.91
94.52
91.76
86.74
81.52
76.61
71.53
65.63
58.66
50.70
41.72
31.29
18.71
3.39
-14.68
-34.61
-54.73
-72.99
-87.43
-96.62
-99.80
-96.86
-88.40
-75.53
-59.71
-42.50
-25.10
-8.19
8.21
24.53
41.29
58.73
76.58
93.99
109.59
121.86
129.43
131.37
127.49
118.29
104.73
87.98
69.10
48.97
28.52
8.77
-9.16
-24.43
-36.75
-46.52
-54.47
-61.19
-66.78
-70.94
-73.46
-74.54
-74.74
-74.73
-74.80
-74.69
-73.76
-71.42
-67.16
-60.40
-50.28
-35.80
-16.30
7.94
35.61
64.83
93.85
121.50
147.18
170.30
189.93
204.86
214.31
218.54
218.81
216.70
213.04
207.30
197.91
183.19
162.28
135.41
103.33
66.85
26.87
-15.07
-56.17
-92.45
-119.81
-135.62
-140.01
-135.88
-127.64
-119.37
-113.23
-109.49
-107.35
-106.20
-106.34
-108.60
-113.46
-120.27
-127.33
-132.62
-134.84
-133.97
-131.21
-128.22
-126.35
-125.97
-126.51
-126.83
-125.70
-122.32
-116.44
-108.39
-98.89
-88.74
-78.57
-68.66
-58.93
-49.23
-39.60
-30.49
-22.68
-16.98
-13.87
-13.25
-14.43
-16.47
-18.47
-19.89
-20.64
-20.93
-21.11
-21.52
-22.41
-23.89
-25.98
-28.58
-31.49
-34.43
-37.04
-39.02
-40.13
-40.31
-39.65
-38.43
-36.96
-35.37
-33.55
-31.02
-27.08
-21.05
-12.58
-1.96
9.88
21.55
31.68
39.37
44.55
47.96
50.71
53.79
57.55
61.56
64.87
66.51
65.97
63.40
59.59
55.74
53.15
52.80
55.02
59.28
64.25
68.14
69.30
66.82
60.68
51.70
41.12
30.19
19.87
10.52
1.91
-6.71
-16.29
-27.41
-40.06
-53.74
-67.81
-82.04
-96.63
-111.78
-127.24
-142.02
-154.70
-164.01
-169.24
-170.28
-167.32
-160.61
-150.65
-138.48
-125.87
-114.84
-106.68
-101.14
-96.29
-89.35
-78.06
-61.67
-41.23
-18.93
2.95
22.90
40.42
55.84
69.81
82.96
95.68
108.21
120.70
133.17
145.39
156.88
167.12
175.95
183.69
190.94
198.04
204.68
210.12
213.65
215.28
215.62
215.26
213.95
210.35
202.68
189.83
172.31
