1536935066.00
64.000000
-0.00
-0.00
-0.00
-0.00
-0.00
-0.00
-0.00
-0.00
-0.00
-0.00
0.00
0.01
0.01
-0.00
-0.03
-0.05
-0.05
0.00
0.13
0.36
0.66
1.01
1.37
1.72
2.06
2.40
2.79
3.24
3.80
4.42
5.06
5.66
6.20
6.68
7.15
7.68
8.31
9.14
10.09
11.04
11.88
12.56
13.14
13.76
14.65
15.96
17.91
20.32
22.90
25.38
27.58
29.57
31.68
34.32
37.81
42.54
48.15
54.10
59.83
64.97
69.58
74.14
79.34
85.71
93.76
103.00
112.62
121.73
129.77
136.75
143.30
150.75
157.77
166.64
177.95
191.79
206.97
220.57
228.25
225.36
208.53
176.87
132.76
80.05
23.07
-34.94
-92.44
-149.16
-205.23
-260.37
-313.74
-363.87
-409.83
-450.91
-486.50
-515.74
-537.23
-549.22
-549.96
-538.37
-514.20
-478.67
-433.88
-382.45
-327.02
-269.85
-212.64
-156.65
-102.93
-52.34
-5.88
35.57
71.36
101.21
125.28
144.10
158.37
168.82
176.04
180.41
182.20
181.64
179.02
174.68
169.05
162.55
155.51
148.16
140.62
132.94
125.15
117.30
109.51
101.86
94.47
87.36
80.52
73.88
67.39
61.03
54.88
49.04
43.62
38.68
34.21
30.07
26.09
22.16
18.21
14.35
10.75
7.59
4.97
2.84
1.03
-0.70
-2.55
-4.57
-6.68
-8.70
-10.47
-11.90
-13.00
-13.84
-14.50
-15.05
-15.68
-16.80
-18.83
-21.94
-25.49
-27.93
-27.28
-22.08
-12.30
0.43
13.42
24.16
31.30
34.97
36.15
35.86
34.57
32.38
29.53
26.79
25.18
25.31
26.83
28.49
28.91
27.39
24.26
20.59
17.48
15.39
13.99
12.52
10.33
7.32
4.04
1.36
-0.04
-0.02
0.79
1.32
0.58
-1.82
-5.38
-8.92
-11.15
-11.30
-9.53
-6.83
-4.77
-4.86
-8.15
-14.75
-23.54
-32.38
-38.44
-39.09
-32.93
-20.59
-4.82
10.48
21.73
27.23
27.65
25.45
23.52
23.74
26.22
29.64
32.16
32.47
30.34
26.46
21.55
16.08
10.15
3.86
-2.33
-7.47
-10.53
-10.84
-8.63
-5.01
-1.51
0.52
0.51
-1.20
-3.71
-6.23
-8.42
-10.48
-12.76
-15.22
-17.38
-18.57
-18.47
-17.38
-16.09
-15.26
-15.06
-15.02
-14.47
-13.16
-11.55
-10.60
-11.19
-13.47
-16.73
-19.67
-20.92
-19.69
-16.13
-11.23
-6.45
-3.06
-1.57
-1.64
-2.33
-2.75
-2.62
-2.56
-3.68
-6.79
-11.80
-17.64
-22.72
-25.69
-26.05
-24.29
-21.73
-19.84
-19.59
-21.14
-23.82
-26.54
-28.22
-28.49
-27.42
-25.63
-23.93
-22.80
-22.06
-21.09
-19.17
-16.01
-11.98
-7.88
-4.67
-2.97
-2.93
-4.24
-6.28
-8.34
-9.83
-10.38
-9.87
-8.46
-6.53
-4.44
-2.52
-0.80
0.93
3.04
6.15
11.04
18.49
28.88
41.70
55.19
66.63
73.37
74.03
69.43
62.49
57.16
56.64
62.01
71.83
83.04
92.49
98.14
99.49
97.03
91.44
83.14
72.52
60.24
47.43
35.20
24.15
14.15
4.65
-4.64
-13.27
-20.27
-24.67
-26.10
-25.03
-22.27
-18.37
-13.31
-6.88
0.94
9.59
18.17
25.81
32.00
36.48
38.99
39.15
36.70
31.90
25.65
19.14
13.15
7.52
1.26
-6.74
-16.72
-27.49
-36.97
-43.34
-46.20
-46.77
-46.98
-48.01
-49.45
-49.73
-47.47
-42.89
-38.12
-36.03
-38.25
-43.84
-49.48
-51.30
-47.06
-37.50
-25.86
-15.92
-10.26
-9.15
-11.15
-14.26
-17.19
-19.71
-22.32
-25.62
-29.69
-34.10
-38.20
-41.54
-43.89
-45.15
-45.20
-43.80
-40.84
-36.36
-30.72
-24.28
-17.40
-10.19
-2.62
5.26
13.19
20.59
26.77
31.04
32.92
32.12
28.48
22.00
13.00
2.29
-9.00
-19.54
-28.35
-35.04
-39.91
-43.87
-47.92
-52.75
-58.60
-65.52
-73.47
-82.33
-91.35
-98.69
-101.76
-98.09
-86.73
-69.23
-49.74
-33.16
-22.85
-18.86
-17.75
-14.58
-5.34
11.96
36.01
62.48
85.59
100.00
102.51
93.38
75.57
53.69
34.20
22.13
18.97
22.28
27.31
28.77
23.93
11.93
-6.24
-24.91
-36.53
-34.94
-17.69
13.69
53.37
95.20
132.87
162.35
187.52
216.49
256.16
307.99
367.68
426.34
476.95
514.39
516.27
470.40
383.45
278.39
179.40
107.72
58.75
27.31
9.76
1.16
-1.12
1.39
4.15
0.83
-12.01
-34.37
-60.55
-84.10
-102.42
-111.60
-105.15
-82.82
-52.09
-22.74
-4.31
-0.98
-12.75
-40.21
-79.36
-118.19
-150.49
-178.12
-204.28
-231.64
-259.66
-286.34
-314.85
-347.06
-375.43
-397.47
-417.22
-437.33
-458.52
-479.15
-464.32
-396.76
-329.23
-283.40
-249.63
-228.34
-220.77
-227.61
-247.32
-275.31
-309.10
-342.58
-359.20
-349.51
-315.44
-263.77
-203.77
-143.74
-88.30
-41.79
-4.54
31.89
71.46
111.12
146.48
173.34
189.15
194.14
188.86
176.83
167.65
168.10
179.53
200.39
226.57
252.87
275.06
290.00
297.81
303.70
313.28
330.38
356.93
391.82
430.57
466.23
490.69
497.19
482.79
447.93
396.33
334.84
271.78
214.81
168.60
133.50
106.03
80.90
53.68
22.97
-9.12
-38.52
-61.59
-77.33
-88.00
-98.16
-112.73
-135.32
-167.01
-206.51
-250.55
-294.62
-333.73
-363.31
-380.04
-382.82
-373.47
-356.67
-338.84
-326.05
-321.53
-324.20
-328.95
-328.80
-318.06
-294.77
-261.34
-223.23
-186.40
-154.97
-130.21
-110.83
-94.02
-76.66
-56.22
-31.47
-2.98
26.51
52.32
69.21
73.38
64.20
45.08
22.52
3.87
-5.12
-1.97
12.60
35.86
64.78
97.07
131.28
166.03
199.44
229.14
253.22
271.21
284.69
297.02
311.81
331.05
353.91
376.64
393.90
400.96
395.25
376.95
348.05
311.21
269.18
224.95
182.21
145.13
117.37
100.72
94.40
95.21
98.81
101.06
98.68
89.11
70.11
39.47
-4.71
-63.34
-135.54
-217.91
-304.11
-385.31
-451.57
-494.23
-508.53
-495.54
-461.60
-415.87
-366.74
-318.97
-273.21
-227.32
-178.58
-125.31
-67.47
-6.32
55.77
115.27
167.59
207.70
231.76
238.45
229.60
209.38
182.58
152.76
121.50
88.83
54.21
17.49
-20.56
-58.30
-93.15
-121.74
-140.25
-145.31
-135.19
-110.62
-74.54
-31.18
15.33
61.58
104.78
142.14
170.69
187.94
193.02
187.44
174.74
159.07
143.47
128.82
113.97
96.65
74.72
47.40
15.82
-16.97
-47.11
-71.36
-88.57
-100.27
-109.80
-120.61
-134.17
-148.96
-160.92
-165.29
-158.73
-140.78
-113.79
-81.78
-48.91
-18.30
8.44
31.26
51.39
70.90
92.01
116.18
143.65
173.40
203.67
232.59
258.72
281.15
299.34
313.06
322.38
327.94
330.78
331.91
331.27
327.23
316.72
296.47
264.75
222.72
174.72
127.20
86.96
59.07
45.43
44.29
50.66
57.55
57.86
46.52
22.23
-11.79
-48.91
-81.38
-103.18
-111.97
-109.31
-99.40
-87.23
-77.07
-71.67
-72.24
-78.59
-89.18
-101.27
-111.44
-116.69
-115.53
-108.74
-98.86
-88.90
-80.84
-74.92
-70.01
-64.52
-57.46
-48.87
-39.59
-30.60
-22.33
-14.28
-5.15
6.52
21.47
38.87
56.32
70.58
78.82
79.97
75.08
66.67
57.22
47.83
37.74
24.99
7.87
-13.80
-38.20
-62.19
-82.67
-98.04
-108.93
-117.63
-126.68
-137.03
-147.22
-154.10
-154.94
-149.54
-140.96
-134.19
-133.44
-139.74
-150.55
-161.30
-167.83
-167.82
-160.57
-145.58
-121.81
-88.33
-46.36
-0.96
39.48
66.09
73.21
60.79
34.01
0.60
-32.31
-60.40
-82.73
-100.72
-116.73
-132.64
-149.31
-166.26
-182.31
-195.95
-206.23
-213.37
-218.46
-222.46
-224.88
-223.00
-212.86
-191.99
-160.79
-122.97
-84.34
-50.23
-23.23
-2.57
14.48
30.07
42.73
49.38
47.24
35.82
17.22
-5.13
-28.39
-51.79
-76.70
-107.20
-144.87
-187.26
-228.04
-259.73
-276.57
-276.10
-259.38
-229.83
-194.17
-157.03
-120.54
-84.48
-48.93
-15.89
10.80
27.02
46.93
76.65
115.21
155.50
191.18
218.93
237.69
247.79
250.81
249.53
244.18
235.18
220.90
201.23
175.83
144.27
106.89
65.78
24.99
-11.89
-33.28
-33.70
-13.71
19.62
55.71
84.97
102.47
108.88
107.31
101.94
94.61
85.80
75.19
63.08
51.25
42.31
38.22
38.49
41.03
42.42
40.41
34.94
28.00
22.67
21.76
26.84
36.80
49.11
60.48
68.93
74.40
78.50
83.46
90.99
101.70
115.07
129.95
144.31
155.78
161.59
159.09
146.78
125.61
99.31
73.46
53.30
41.23
36.28
35.32
35.34
35.36
36.82
42.12
52.37
66.58
80.46
88.22
85.48
71.68
50.87
30.44
18.14
18.91
32.78
54.80
77.23
92.72
97.02
90.20
75.85
59.03
43.30
29.82
16.97
1.79
-18.14
-43.79
-74.71
-109.94
-149.07
-192.01
-237.07
-279.27
-310.32
-321.38
-308.15
-275.13
-235.96
-207.85
-203.78
-224.63
-258.85
-288.92
-301.40
-294.78
-280.03
-273.43
-285.77
-318.02
-359.45
-395.62
-416.67
-421.32
-415.00
-403.69
-388.49
-363.27
-322.74
-262.39
-183.64
-93.14
0.73
91.93
178.27
260.18
339.84
410.96
467.64
503.98
517.76
512.70
498.55
488.03
491.93
517.76
557.50
600.53
634.12
648.59
640.62
613.42
573.93
508.36
449.52
393.34
338.53
284.33
231.55
181.65
135.21
90.70
44.75
-2.94
-58.29
-120.64
-187.25
-254.19
-317.45
-373.38
-418.81
-451.49
-468.36
-474.28
-472.84
-468.34
-463.81
-459.94
-455.42
-448.97
-441.27
-433.88
-432.59
-438.85
-449.95
-459.38
-459.61
-445.56
-416.86
-377.67
-333.62
-291.36
-253.50
-219.88
-188.97
-159.45
-130.99
-104.17
-79.93
-58.57
-40.22
-22.84
-4.54
15.54
37.03
58.96
80.39
100.73
119.82
137.90
157.70
181.06
207.91
236.48
264.68
291.33
316.42
340.99
366.53
397.56
435.69
477.90
517.81
549.32
569.51
578.92
580.04
575.31
570.25
566.82
562.70
553.44
535.83
509.69
476.88
439.61
371.94
265.47
132.68
0.31
-108.85
-186.53
-235.67
-263.57
-277.42
-282.64
-278.45
-264.73
-244.36
-222.02
-201.97
-186.13
-174.44
-166.07
-160.22
-152.98
-142.26
-129.79
-118.38
-110.77
-108.12
-110.05
-115.48
-123.27
-130.33
-132.21
-129.62
-124.65
-119.25
-114.49
-110.42
-106.70
-102.96
-97.95
-91.11
-83.23
-75.34
-68.33
-62.74
-58.56
-55.45
-53.04
-50.63
-47.83
-45.04
-42.58
-40.63
-39.42
-38.80
-38.43
-37.86
-36.68
-34.69
-32.09
-30.16
-28.21
-26.19
-24.02
-21.47
-18.34
-14.53
-10.32
-6.41
-3.63
-2.63
-3.96
-7.53
-12.64
-18.26
-23.52
-28.02
-32.00
-36.30
-41.74
-49.06
-58.18
-68.26
-78.20
-86.99
-94.16
-99.92
-105.14
-111.22
-120.05
-133.50
-152.66
-176.76
-202.46
-223.81
-233.89
-227.61
-204.11
-167.46
-124.99
-84.12
-49.29
-22.15
-1.87
14.32
29.12
43.89
58.49
72.10
83.99
93.85
101.47
106.85
110.41
112.87
114.99
117.38
120.18
123.01
125.40
127.05
128.13
128.97
129.37
128.32
124.37
116.25
103.26
85.40
63.19
37.83
11.54
-12.12
-28.58
-33.59
-25.06
-4.61
22.44
49.05
69.23
80.38
83.73
83.07
82.33
83.64
86.72
89.50
89.57
85.27
76.23
63.22
47.80
31.92
17.45
5.65
-3.37
-10.93
-19.30
-30.76
-46.67
-67.43
-93.08
-123.98
-160.64
-202.61
-247.07
-288.40
-319.41
-334.10
-330.25
-310.42
-280.63
-247.62
-216.17
-187.92
-161.96
-136.69
-111.16
-85.55
-60.54
-36.27
-11.74
15.06
46.25
82.75
123.37
164.54
201.03
227.51
240.17
238.01
223.04
199.49
172.38
146.05
123.19
104.56
89.41
76.17
63.20
49.36
34.09
17.10
-1.98
-23.66
-48.21
-74.94
-101.53
-124.28
-139.02
-142.58
-134.03
-114.92
-88.46
-58.05
-26.10
6.51
39.88
74.35
109.90
146.25
183.31
221.42
261.14
302.40
343.81
382.46
414.38
435.65
443.36
436.19
414.24
378.68
331.42
275.06
213.01
149.37
88.48
34.09
-11.37
-47.10
-73.80
-93.09
-106.95
-117.34
-126.06
-134.78
-145.18
-158.85
-176.86
-199.13
-223.99
-248.10
-267.19
-277.29
-276.06
-263.71
-242.93
-217.76
-191.99
-167.65
-144.52
-120.76
-94.49
-65.49
-36.14
-11.03
4.74
7.75
-2.09
-21.34
-44.28
-65.16
-79.95
-87.02
-86.56
-79.27
-65.48
-45.16
-18.63
12.59
45.64
77.13
104.55
127.34
147.03
166.30
187.37
210.78
235.02
257.25
274.65
285.58
290.09
289.61
286.10
281.29
276.28
271.62
267.49
263.72
259.47
252.99
241.65
222.47
193.00
152.22
101.06
42.70
-17.90
-74.83
-122.55
-157.28
-177.95
-186.41
-186.52
-182.61
-177.94
-173.97
-170.66
-167.39
-163.93
-160.54
-157.51
-154.47
-150.20
-143.03
-131.71
-115.85
-95.90
-72.74
-47.43
-21.21
4.15
26.21
42.40
50.87
51.46
45.90
37.23
28.74
23.03
21.56
24.69
31.92
42.16
53.85
65.16
74.45
80.70
83.89
84.69
83.99
82.47
80.54
78.66
77.64
78.56
82.22
88.57
96.39
103.52
107.49
106.41
99.57
87.36
71.04
52.23
32.81
14.72
-0.32
-11.01
-16.34
-15.43
-7.79
6.59
26.98
51.93
79.71
107.93
134.06
156.22
173.69
186.60
195.32
199.97
200.50
197.35
190.64
180.39
166.90
151.02
133.75
115.90
97.86
79.90
62.53
44.72
23.65
-4.38
-42.38
-92.11
-153.93
-227.34
-314.13
-406.52
-489.77
-547.89
-570.36
-554.97
-507.57
-439.84
-366.04
-299.00
-245.92
-208.75
-185.33
-171.77
-164.21
-160.43
-159.42
-160.29
-161.22
-159.13
-152.08
-140.17
-125.46
-109.66
-94.20
-79.26
-63.82
-46.12
-24.19
2.50
32.68
61.61
86.12
104.20
115.28
120.18
120.63
118.72
115.88
112.60
108.52
103.43
97.05
89.42
81.09
72.86
65.56
59.57
54.73
50.52
46.50
42.27
37.62
32.82
28.36
24.71
22.10
20.44
19.27
18.21
16.88
15.09
13.24
11.93
11.73
12.83
14.92
17.16
18.64
19.45
18.76
17.01
15.24
14.59
15.72
18.51
22.07
25.35
27.45
28.02
27.71
27.52
28.54
31.67
37.54
46.17
56.48
65.81
69.95
64.44
46.31
15.93
-22.40
-61.54
-94.11
-115.12
-123.51
-121.76
-113.97
-103.94
-93.93
-84.67
-76.10
-68.31
-61.62
-56.28
-52.08
-48.23
-43.82
-38.22
-31.48
-24.32
-17.87
-13.06
-10.30
-9.28
-9.15
-8.81
-7.32
-4.28
0.58
6.61
12.83
18.35
22.72
25.89
28.13
29.77
31.01
31.92
32.40
32.45
32.16
31.65
31.07
30.48
29.81
28.79
26.76
22.76
15.87
5.66
-7.44
-22.09
-36.44
-48.77
-57.95
-63.66
-66.13
-65.65
-62.28
-55.99
-46.92
-35.74
-23.62
-11.85
-1.42
7.35
14.78
21.40
27.55
33.09
37.56
40.56
42.19
43.24
44.95
48.55
54.58
62.58
71.13
78.26
82.17
81.84
77.43
70.18
61.99
54.63
49.07
45.05
41.18
35.64
26.98
14.78
-0.09
-15.93
-30.78
-43.24
-52.82
-60.07
-66.23
-72.77
-80.80
-90.67
-101.83
-113.06
-122.96
-130.51
-135.41
-138.02
-138.93
-138.56
-136.94
-133.78
-128.89
-122.33
-114.54
-106.12
-97.54
-89.00
-80.33
-71.07
-60.69
-48.76
-35.16
-20.27
-4.91
9.82
22.88
33.51
41.44
46.70
49.46
49.84
47.94
43.97
38.46
32.37
26.92
23.37
22.59
24.79
29.47
35.51
41.57
46.51
49.67
50.93
50.55
48.94
46.46
43.39
39.97
36.49
33.33
30.89
29.43
29.02
29.49
30.48
31.58
32.48
33.03
33.32
33.54
33.93
34.56
35.35
36.02
36.33
36.08
35.34
34.36
33.46
32.95
32.92
33.19
33.40
33.08
32.14
31.16
31.30
33.83
39.61
48.56
59.56
70.73
79.93
85.86
88.75
90.35
93.14
99.16
109.01
121.45
133.96
143.54
148.65
150.10
150.56
152.81
158.24
165.86
172.66
174.73
167.30
147.57
115.44
73.33
25.50
-21.93
-60.72
-81.82
-78.49
-52.41
-11.91
30.68
62.99
76.24
67.78
41.42
4.79
-34.95
-78.15
-127.00
-181.61
-238.08
-290.72
-335.04
-369.34
-395.18
-416.94
-445.88
-490.05
-549.58
-616.09
-676.90
-720.11
-737.52
-726.46
-657.51
-526.95
-361.43
-203.08
-80.99
0.22
50.63
82.49
103.56
116.51
116.25
101.26
75.86
49.20
30.08
22.44
25.52
35.69
48.90
58.27
60.88
59.99
59.40
64.10
76.28
95.16
118.26
142.73
163.85
179.11
189.38
198.09
209.05
224.16
243.68
267.30
294.74
324.32
353.85
380.38
400.08
408.85
403.38
383.02
350.69
311.90
272.23
235.80
204.53
178.44
156.87
139.09
124.60
112.94
103.11
93.56
82.65
69.53
54.70
39.95
27.59
19.39
15.92
16.40
19.22
22.68
25.70
28.04
30.31
33.45
38.31
45.42
54.92
66.69
80.32
94.82
108.27
117.65
119.26
109.80
87.76
54.20
12.81
-31.37
-73.72
-111.56
-144.75
-175.25
-205.90
-239.12
-275.72
-314.39
-351.65
-382.63
-402.10
-405.80
-391.62
-360.06
-314.07
-258.26
-197.88
-138.02
-83.06
-36.45
-0.95
21.09
27.57
17.03
-10.35
-51.49
-99.93
-146.52
-181.56
-197.74
-192.28
-167.41
-129.00
-84.05
-38.63
3.13
38.72
66.60
85.72
95.84
98.13
95.01
89.55
84.40
80.79
78.43
75.96
71.86
65.55
58.04
51.89
50.47
56.69
71.58
93.29
117.17
137.08
147.66
146.56
134.94
116.68
96.47
77.98
62.90
51.07
41.37
32.56
24.11
15.40
5.74
-4.99
-15.73
-24.40
-29.11
-29.79
-29.38
-32.55
-44.85
-69.58
-104.96
-143.34
-174.11
-188.57
-183.57
-162.36
-130.20
-92.35
-51.49
-7.23
42.09
96.30
151.51
201.44
240.15
267.02
284.32
294.74
299.40
297.42
286.61
264.92
232.09
178.07
105.22
27.17
-39.21
-84.16
-107.28
-113.64
-111.40
-105.37
-97.83
-87.74
-74.73
-60.23
-47.03
-36.84
-30.98
-29.71
-32.04
-36.58
-40.28
-41.16
-39.17
-35.68
-32.22
-29.88
-29.07
-29.47
-30.67
-31.19
-30.07
-27.31
-23.59
-19.56
-15.73
-12.43
-9.80
-8.13
-7.09
-6.34
-5.68
-5.07
-4.50
-4.21
-4.69
-6.40
-9.61
-13.78
-17.70
-19.76
-18.51
-13.16
-3.96
7.73
19.67
28.95
32.62
28.39
15.39
-5.15
-29.81
-53.56
-71.17
-78.92
-75.92
-64.37
-48.73
-33.98
-23.92
-20.11
-21.86
-27.01
-33.09
-38.13
-41.00
-41.16
-38.33
-32.25
-22.84
-10.43
3.79
17.95
30.00
38.35
42.48
42.91
40.94
38.01
35.12
32.53
29.90
26.62
22.11
16.13
8.66
-0.33
-11.13
-24.13
-39.45
-56.41
-73.30
-87.82
-97.87
-102.52
-102.40
-99.38
-95.72
-93.11
-92.14
-92.47
-93.31
-93.85
-93.51
-91.82
-88.35
-82.78
-75.03
-65.52
-55.00
-44.35
-34.25
-24.95
-16.25
-7.58
1.65
11.85
22.96
34.45
45.49
55.26
63.25
69.35
73.83
77.02
79.11
80.10
79.80
78.12
75.16
71.25
66.84
62.27
57.71
53.13
48.43
43.51
38.32
32.91
27.36
21.74
16.13
10.66
5.56
1.19
-2.02
-3.71
-3.70
-2.11
0.63
3.86
6.90
9.19
10.45
10.68
10.12
9.09
7.90
6.76
5.70
4.70
3.67
2.57
1.41
0.25
-0.82
-1.73
-2.49
-3.15
-3.83
-4.66
-5.79
-7.33
-9.37
-11.93
-14.88
-17.91
-20.53
-22.13
-22.19
-20.41
-16.93
-12.26
-7.17
-2.43
1.37
4.03
5.68
6.67
7.36
7.98
8.51
8.76
8.53
7.72
6.46
5.03
3.77
2.87
2.35
2.05
1.80
1.46
1.02
0.48
-0.24
-1.34
-3.07
-5.50
-8.42
-11.25
-13.24
-13.68
-12.22
-8.94
-4.36
0.77
5.72
9.97
13.21
15.42
16.69
17.21
17.18
16.77
16.09
15.23
14.26
13.21
12.10
10.93
9.66
8.30
6.88
5.50
4.27
3.23
2.29
1.22
-0.33
-2.67
-5.93
-9.95
-14.20
-17.87
-20.06
-20.05
-17.50
-12.65
-6.24
0.69
7.11
12.30
15.97
18.23
19.40
19.88
19.91
19.59
18.96
18.03
16.90
15.75
14.71
13.85
13.12
12.36
11.40
10.16
8.66
7.01
5.37
3.81
2.27
0.60
-1.45
-4.02
-7.13
-10.62
-14.15
-17.28
-19.48
-20.31
-19.42
-16.75
-12.50
-7.20
-1.54
3.83
8.46
12.18
15.09
17.38
19.18
20.47
21.17
21.19
20.58
19.55
18.37
17.26
16.34
15.55
14.75
13.82
12.70
11.40
10.03
8.69
7.43
6.23
4.95
3.40
1.40
-1.16
-4.22
-7.55
-10.84
-13.81
-16.38
-18.71
-21.18
-24.20
-27.97
-32.27
-36.43
-39.47
-40.46
-38.86
-34.82
-29.11
-22.90
-17.35
-13.28
-10.94
-10.06
-10.01
-10.02
-9.42
-7.81
-5.11
-1.45
2.90
7.67
12.78
18.31
24.63
32.21
41.57
53.03
66.46
81.22
96.13
109.70
120.45
127.19
129.22
126.27
118.41
105.98
89.68
70.66
50.51
31.01
13.78
-0.17
-10.60
-17.96
-23.08
-26.78
-29.59
-31.69
-33.12
-33.88
-34.09
-34.03
-34.01
-34.27
-34.93
-35.94
-37.15
-38.38
-39.50
-40.43
-41.19
-41.86
-42.55
-43.32
-44.17
-45.02
-45.68
-45.86
-45.21
-43.37
-40.12
-35.46
-29.68
-23.35
-17.14
-11.61
-7.06
-3.44
-0.47
2.14
4.55
6.68
8.38
9.50
10.06
10.24
10.25
10.25
10.30
10.40
10.51
10.65
10.89
11.29
11.86
12.55
13.23
13.75
13.93
13.67
12.95
11.81
10.41
8.93
7.52
6.28
5.16
4.03
2.76
1.27
-0.42
-2.21
-4.01
-5.78
-7.57
-9.51
-11.73
-14.31
-17.29
-20.66
-24.32
-28.04
-31.44
-34.00
-35.16
-34.54
-32.09
-28.17
-23.44
-18.64
-14.36
-10.90
-8.28
-6.33
-4.87
-3.72
-2.78
-1.99
-1.28
-0.57
0.18
1.01
1.88
2.73
3.56
4.34
5.10
5.86
6.58
7.17
7.51
7.52
7.12
6.37
5.34
4.13
2.82
1.47
0.16
-1.07
-2.14
-3.05
-3.85
-4.63
-5.52
-6.57
-7.81
-9.21
-10.72
-12.30
-13.87
-15.30
-16.39
-16.86
-16.46
-15.08
-12.74
-9.64
-6.09
-2.43
1.03
4.03
6.38
7.98
8.82
8.97
8.59
7.88
7.02
6.18
5.48
5.00
4.82
4.96
5.35
5.85
6.29
6.55
6.57
6.40
6.14
5.85
5.48
4.92
4.01
2.65
0.93
-0.89
-2.52
-3.74
-4.58
-5.31
-6.27
-7.74
-9.77
-12.11
-14.37
-16.11
-17.00
-16.88
-15.74
-13.67
-10.80
-7.35
-3.63
0.03
3.23
5.67
7.17
7.76
7.64
7.14
6.57
6.12
5.88
5.72
5.52
5.18
4.75
4.41
4.32
4.55
5.00
5.43
5.58
5.28
4.51
3.40
2.14
0.81
-0.57
-2.12
-3.92
-6.00
-8.27
-10.58
-12.79
-14.80
-16.52
-17.84
-18.58
-18.46
-17.26
-14.85
-11.38
-7.23
-2.92
1.04
4.31
6.74
8.37
9.31
9.69
9.62
9.21
8.59
7.90
7.25
6.67
6.13
5.60
5.07
4.58
4.22
3.98
3.80
3.54
3.07
2.36
1.48
0.56
-0.32
-1.14
-2.02
-3.10
-4.51
-6.29
-8.37
-10.65
-12.90
-14.85
-16.18
-16.53
-15.63
-13.39
-10.00
-5.85
-1.50
2.60
6.11
8.91
10.99
12.38
13.16
13.34
13.01
12.26
11.23
10.11
9.04
8.13
7.45
7.00
6.72
6.48
6.14
5.56
4.64
3.38
1.86
0.21
-1.43
-2.97
-4.42
-5.88
-7.64
-10.03
-13.16
-16.87
-20.75
-24.17
-26.47
-27.02
-25.39
-21.70
-16.52
-10.55
-4.34
1.94
8.55
15.93
24.50
34.54
45.60
56.92
67.74
77.39
85.28
91.35
96.25
102.13
112.52
130.17
156.31
189.80
226.81
261.24
286.88
298.55
294.42
275.89
244.43
201.88
151.03
95.47
38.39
-17.61
-73.09
-129.53
-187.97
-250.42
-315.35
-375.07
-417.76
-433.07
-415.84
-371.33
-310.72
-247.28
-196.70
-170.61
-172.33
-197.63
-239.07
-287.84
-339.50
-390.37
-411.65
-384.18
-311.78
-218.89
-131.04
-73.52
-39.70
-22.20
-14.83
-12.26
-8.97
-3.11
7.87
26.88
54.39
88.96
124.13
154.34
177.15
190.17
192.65
187.04
177.61
167.47
158.45
148.13
134.13
115.43
90.67
59.44
23.96
-11.56
-42.91
-66.52
-82.07
-90.32
-92.16
-89.14
-82.55
-72.44
-58.13
-39.40
-16.70
7.93
32.31
54.64
73.33
87.26
96.53
102.68
108.42
116.98
130.56
149.61
172.60
196.75
219.33
238.75
254.75
267.71
277.72
284.14
285.89
282.08
272.41
257.09
236.48
211.00
181.47
149.54
117.62
88.19
62.72
41.04
21.59
2.49
-17.36
-37.79
-57.86
-76.76
-94.53
-111.91
-129.66
-147.79
-165.25
-180.47
-192.04
-199.29
-202.44
-202.41
-200.53
-198.48
-198.04
-200.66
-206.68
-214.68
-221.46
-222.80
-214.94
-195.77
-165.21
-124.80
-77.20
-25.81
24.77
68.48
98.20
107.25
91.38
50.03
-13.25
-91.44
-175.08
-253.48
-315.98
-353.64
-361.35
-339.63
-295.24
-239.45
-184.74
-140.83
-112.20
-98.22
-95.02
-98.03
-103.42
-108.37
-110.65
-108.61
-101.69
-91.00
-79.07
-68.54
-60.84
-55.07
-48.50
-37.92
-21.51
0.43
25.92
52.70
79.48
106.52
135.28
167.46
204.07
244.69
287.20
328.10
363.29
389.32
404.26
408.15
402.61
389.94
372.23
350.95
327.16
301.91
276.51
252.34
230.34
210.69
192.74
175.52
158.24
140.70
123.33
106.94
92.32
79.84
69.35
60.29
51.90
43.60
35.24
27.19
20.19
14.93
11.78
10.52
10.51
10.94
11.20
11.04
10.55
10.05
9.88
10.29
11.47
13.61
16.87
21.34
27.03
33.74
41.20
49.07
56.99
64.59
71.48
77.29
81.69
84.44
85.37
84.32
81.04
75.23
66.59
55.02
40.78
24.66
7.90
-8.04
-21.87
-32.87
-41.12
-47.37
-52.76
-58.33
-64.67
-71.78
-79.22
-86.33
-92.53
-97.38
-100.63
-102.17
-102.05
-100.47
-97.81
-94.54
-91.01
-87.32
-83.25
-78.38
-72.37
-65.12
-56.93
-48.38
-40.12
-32.65
-26.13
-20.46
-15.29
-10.24
-4.96
0.80
7.09
13.62
19.72
24.33
26.30
24.76
19.43
10.68
-0.58
-13.30
-26.61
-39.86
-52.60
-64.38
-74.68
-83.04
-89.20
-93.30
-95.80
-97.36
-98.46
-99.31
-99.79
-99.52
-98.07
-95.12
-90.60
-84.77
-78.19
-71.61
-65.74
-60.96
-57.17
-53.73
-49.60
-43.67
-35.14
-23.81
-10.36
3.57
15.67
23.48
25.15
20.22
9.93
-3.02
-15.29
-23.94
-27.34
-25.28
-18.63
-8.71
3.28
16.21
28.80
39.41
46.25
48.10
44.93
38.12
29.97
22.73
17.68
14.71
12.57
9.70
4.95
-1.92
-10.18
-18.45
-25.11
-28.77
-28.63
-24.69
-17.80
-9.41
-1.01
6.41
12.72
18.66
25.51
34.65
46.91
62.15
78.88
94.22
104.23
104.80
92.83
67.46
30.75
-12.56
-56.30
-94.68
-123.97
-143.38
-154.76
-161.32
-166.11
-170.77
-175.28
-178.49
-178.95
-175.62
-168.18
-156.78
-141.63
-122.93
-100.93
-76.33
-50.42
-24.94
-1.72
17.96
33.65
45.82
55.42
63.43
70.41
76.32
80.68
82.92
82.77
80.54
77.01
73.19
69.92
67.57
65.99
64.59
62.72
59.86
55.92
51.15
46.08
41.23
36.97
33.34
30.13
26.95
23.41
19.25
14.45
9.22
3.97
-0.77
-4.45
-6.61
-7.00
-5.63
-2.79
0.98
5.07
8.87
11.95
14.09
15.27
15.59
15.19
14.21
12.76
10.95
8.99
7.13
5.64
4.69
4.29
4.23
4.18
3.83
3.01
1.76
0.28
-1.22
-2.61
-3.92
-5.30
-6.91
-8.87
-11.18
-13.82
-16.71
-19.73
-22.66
-25.11
-26.52
-26.34
-24.19
-20.04
-14.29
-7.64
-0.82
5.54
11.13
15.89
19.88
23.13
25.52
26.89
27.11
26.28
24.73
22.94
21.39
20.36
19.89
19.79
19.74
19.50
18.92
17.97
16.68
15.05
13.08
10.77
8.20
5.52
2.93
0.60
-1.38
-3.09
-4.70
-6.41
-8.29
-10.21
-11.81
-12.64
-12.25
-10.43
-7.28
-3.23
1.11
5.12
8.40
10.81
12.40
13.26
13.47
13.00
11.91
10.37
8.72
7.32
6.46
6.19
6.36
6.70
6.92
6.86
6.49
5.85
5.03
4.10
3.08
1.92
0.54
-1.10
-3.02
-5.12
-7.26
-9.28
-11.11
-12.71
-14.02
-14.86
-14.96
-14.04
-11.95
-8.81
-5.05
-1.24
2.07
4.54
6.07
6.80
6.95
6.70
6.18
5.47
4.66
3.86
3.25
2.96
3.02
3.35
3.75
3.98
3.87
3.37
2.56
1.61
0.62
-0.35
-1.31
-2.35
-3.55
-4.96
-6.61
-8.45
-10.36
-12.15
-13.58
-14.37
-14.27
-13.11
-10.92
-7.92
-4.49
-1.10
1.89
4.27
6.02
7.17
7.81
7.92
7.48
6.53
5.26
3.98
3.02
2.56
2.55
2.80
3.04
3.10
2.93
2.61
2.20
1.73
1.13
0.32
-0.72
-1.97
-3.39
-4.94
-6.65
-8.54
-10.60
-12.73
-14.69
-16.13
-16.69
-16.09
-14.27
-11.39
-7.86
-4.15
-0.72
2.14
4.30
5.77
6.60
6.88
6.66
6.05
5.19
4.24
3.38
2.78
2.49
2.53
2.84
3.29
3.76
4.11
4.22
4.06
3.63
2.98
2.17
1.22
0.13
-1.10
-2.48
-4.01
-5.65
-7.38
-9.17
-10.91
-12.39
-13.31
-13.30
-12.09
-9.64
-6.19
-2.23
1.65
4.93
7.29
8.65
9.09
8.81
8.04
6.97
5.83
4.77
3.94
3.42
3.19
3.20
3.36
3.60
3.84
3.98
3.93
3.62
3.06
2.30
1.46
0.64
-0.15
-0.97
-1.96
-3.20
-4.68
-6.27
-7.83
-9.21
-10.32
-11.08
-11.35
-10.91
-9.58
-7.34
-4.40
-1.18
1.81
4.17
5.75
6.60
6.90
6.83
6.49
5.92
5.18
4.40
3.77
3.46
3.55
3.95
4.52
5.08
5.53
5.81
5.94
5.85
5.53
4.94
4.10
3.11
2.04
0.93
-0.23
-1.48
-2.82
-4.18
-5.48
-6.68
-7.79
-8.81
-9.66
-10.06
-9.69
-8.31
-5.98
-3.07
-0.15
2.25
3.84
4.61
4.80
4.65
4.31
3.79
3.10
2.27
1.46
0.91
0.82
1.25
2.10
3.14
4.09
4.75
5.04
4.96
4.55
3.85
2.83
1.46
-0.25
-2.22
-4.27
-6.18
-7.78
-8.99
-9.83
-10.39
-10.69
-10.65
-10.09
-8.84
-6.84
-4.29
-1.60
0.74
2.38
3.24
3.48
3.48
3.53
3.80
4.25
4.73
5.04
5.12
4.94
4.57
4.10
3.63
3.23
2.97
2.90
3.00
3.23
3.49
3.64
3.54
3.12
2.32
1.21
-0.12
-1.52
-2.88
-4.16
-5.38
-6.62
-7.91
-9.21
-10.30
-10.87
-10.62
-9.39
-7.22
-4.38
-1.25
1.77
4.38
6.42
7.82
8.57
8.68
8.16
7.10
5.72
4.34
3.34
3.00
3.39
4.31
5.41
6.32
6.80
6.80
6.41
5.72
4.78
3.60
2.20
0.72
-0.67
-1.78
-2.57
-3.14
-3.70
-4.49
-5.62
-6.96
-8.22
-8.99
-8.88
-7.71
-5.55
-2.74
0.20
2.81
4.78
6.09
6.87
7.27
7.36
7.13
6.55
5.71
4.88
4.36
4.37
4.93
5.78
6.58
7.04
7.05
6.70
6.13
5.52
4.95
4.45
4.03
3.71
3.47
3.22
2.86
2.26
1.37
0.20
-1.14
-2.44
-3.45
-3.91
-3.63
-2.58
-0.88
1.17
3.19
4.85
5.93
6.42
6.37
5.87
4.95
3.57
1.67
-0.75
-3.61
-6.69
-9.75
-12.51
-14.79
-16.48
-17.59
-18.26
-18.61
-18.80
-18.91
-18.98
-18.98
-18.87
-18.64
-18.33
-18.07
-17.97
-18.13
-18.56
-19.19
-19.90
-20.58
-21.21
-21.77
-22.18
-22.17
-21.43
-19.59
-16.54
-12.45
-7.75
-3.01
1.27
4.82
7.65
9.88
11.66
13.11
14.31
15.37
16.37
17.33
18.17
18.66
18.46
17.35
15.27
12.43
9.25
6.19
3.59
1.57
0.11
-0.97
-1.86
-2.71
-3.59
-4.47
-5.27
-5.89
-6.32
-6.61
-6.92
-7.35
-7.85
-8.24
-8.18
-7.34
-5.50
-2.55
1.49
6.45
12.06
17.80
22.98
26.90
29.07
29.44
28.43
26.74
25.14
24.10
23.69
23.61
23.38
22.61
21.15
19.16
16.94
14.80
12.87
11.04
9.10
6.87
4.39
1.85
-0.49
-2.47
-4.17
-5.82
-7.63
-9.65
-11.71
-13.52
-14.76
-15.22
-14.81
-13.51
-11.40
-8.64
-5.49
-2.23
0.85
3.55
5.76
7.48
8.73
9.50
9.76
9.48
8.65
7.37
5.74
3.97
2.24
0.76
-0.32
-0.90
-0.99
-0.71
-0.26
0.13
0.30
0.15
-0.33
-1.08
-2.02
-3.04
-4.05
-5.01
-5.92
-6.77
-7.63
-8.50
-9.37
-10.16
-10.76
-10.99
-10.72
-9.82
-8.30
-6.28
-4.02
-1.83
0.03
1.42
2.35
2.93
3.31
3.59
3.82
4.00
4.16
4.30
4.48
4.70
4.88
4.95
4.81
4.47
4.04
3.66
3.46
3.48
3.64
3.73
3.61
3.16
2.40
1.42
0.39
-0.53
-1.23
-1.68
-1.94
-2.13
-2.43
-2.98
-3.83
-4.88
-5.88
-6.48
-6.40
-5.51
-3.92
-1.89
0.21
2.05
3.43
4.25
4.55
4.44
4.06
3.54
3.02
2.63
2.47
2.58
2.92
3.40
3.87
4.20
4.29
4.10
3.72
3.25
2.83
2.48
2.17
1.78
1.21
0.43
-0.50
-1.46
-2.30
-2.94
-3.34
-3.52
-3.56
-3.58
-3.71
-4.07
-4.74
-5.67
-6.69
-7.50
-7.78
-7.30
-6.03
-4.15
-2.01
0.02
1.63
2.71
3.29
3.52
3.51
3.31
2.91
2.30
1.56
0.84
0.32
0.10
0.17
0.42
0.70
0.89
0.96
0.93
0.81
0.61
0.33
-0.05
-0.47
-0.87
-1.19
-1.44
-1.68
-1.99
-2.40
-2.88
-3.37
-3.83
-4.26
-4.76
-5.42
-6.24
-7.15
-7.98
-8.55
-8.75
-8.52
-7.85
-6.76
-5.29
-3.56
-1.76
-0.15
1.01
1.61
1.69
1.46
1.18
1.03
1.05
1.20
1.39
1.58
1.76
1.96
2.17
2.36
2.47
2.48
2.35
2.13
1.81
1.40
0.87
0.22
-0.54
-1.34
-2.10
-2.74
-3.25
-3.63
-3.91
-4.13
-4.33
-4.59
-4.96
-5.51
-6.23
-7.02
-7.73
-8.12
-8.00
-7.25
-5.91
-4.13
-2.19
-0.35
1.12
2.06
2.37
2.09
1.36
0.39
-0.53
-1.17
-1.38
-1.16
-0.64
-0.00
0.58
1.02
1.34
1.58
1.77
1.90
1.90
1.75
1.43
1.01
0.61
0.33
0.20
0.19
0.18
0.03
-0.32
-0.89
-1.61
-2.40
-3.17
-3.83
-4.27
-4.39
-4.05
-3.21
-1.94
-0.46
0.93
1.94
2.44
2.48
2.20
1.81
1.43
1.09
0.75
0.38
-0.02
-0.35
-0.51
-0.40
0.03
0.67
1.37
1.92
2.14
1.98
1.48
0.75
-0.09
-0.91
-1.68
-2.38
-3.06
-3.73
-4.46
-5.28
-6.22
-7.24
-8.20
-8.89
-9.05
-8.53
-7.31
-5.57
-3.63
-1.82
-0.39
0.60
1.22
1.58
1.78
1.85
1.77
1.51
1.16
0.83
0.68
0.86
1.37
2.15
3.00
3.70
4.06
3.99
3.55
2.94
2.34
1.89
1.58
1.28
0.82
0.08
-0.91
-2.06
-3.26
-4.43
-5.51
-6.41
-6.96
-6.97
-6.31
-5.00
-3.25
-1.40
0.28
1.66
2.79
3.81
4.78
5.65
6.27
6.54
6.40
6.01
5.55
5.22
5.07
5.06
5.09
5.05
4.91
4.64
4.23
3.64
2.89
2.00
1.07
0.22
-0.50
-1.08
-1.63
-2.24
-3.01
-4.01
-5.17
-6.36
-7.32
-7.79
-7.52
-6.43
-4.61
-2.37
-0.07
1.94
3.45
4.46
5.08
5.44
5.66
5.79
5.88
5.97
6.12
6.39
6.76
7.11
7.35
7.36
7.13
6.72
6.27
5.86
5.50
5.14
4.67
4.01
3.12
2.07
0.95
-0.17
-1.25
-2.31
-3.41
-4.61
-5.86
-7.03
-7.85
-8.08
-7.51
-6.15
-4.17
-1.87
0.45
2.53
4.20
5.41
6.16
6.52
6.63
6.65
6.72
6.89
7.12
7.34
7.48
7.55
7.60
7.70
7.78
7.75
7.44
6.83
5.96
5.00
4.11
3.32
2.61
1.87
1.08
0.27
-0.50
-1.18
-1.82
-2.52
-3.41
-4.58
-6.05
-7.76
-9.52
-11.06
-12.04
-12.20
-11.38
-9.67
-7.34
-4.73
-2.18
0.11
2.06
3.67
4.96
5.94
6.60
6.95
7.00
6.83
6.54
6.25
6.08
6.08
6.25
6.48
6.67
6.70
6.58
6.35
6.12
5.93
5.76
5.49
4.98
4.15
3.04
1.78
0.56
-0.51
-1.41
-2.22
-3.08
-4.08
-5.25
-6.60
-8.06
-9.53
-10.87
-11.84
-12.19
-11.74
-10.43
-8.43
-6.05
-3.65
-1.50
0.29
1.75
2.94
3.89
4.56
4.85
4.76
4.34
3.81
3.41
3.34
3.70
4.38
5.19
5.88
6.27
6.30
6.06
5.69
5.33
5.03
4.77
4.46
4.00
3.34
2.52
1.62
0.72
-0.08
-0.76
-1.38
-1.98
-2.62
-3.35
-4.21
-5.20
-6.33
-7.54
-8.69
-9.57
-9.91
-9.50
-8.29
-6.45
-4.32
-2.30
-0.74
0.18
0.48
0.37
0.09
-0.13
-0.18
-0.08
0.10
0.34
0.66
1.13
1.82
2.64
3.45
4.04
4.25
4.06
3.49
2.67
1.70
0.66
-0.39
-1.38
-2.25
-2.97
-3.60
-4.21
-4.89
-5.67
-6.51
-7.34
-8.12
-8.86
-9.61
-10.34
-10.93
-11.15
-10.74
-9.54
-7.60
-5.17
-2.62
-0.30
1.55
2.83
3.56
3.83
3.78
3.58
3.40
3.41
3.70
4.29
5.06
5.85
6.49
6.90
7.07
7.03
6.82
6.45
5.91
5.20
4.35
3.39
2.38
1.34
0.28
-0.80
-1.90
-2.96
-3.96
-4.86
-5.68
-6.49
-7.36
-8.29
-9.14
-9.63
-9.48
-8.51
-6.74
-4.46
-2.04
0.12
1.75
2.78
3.23
3.22
2.90
2.38
1.79
1.27
0.99
1.07
1.56
2.40
3.48
4.61
5.62
6.37
6.73
6.68
6.29
5.69
5.01
4.35
3.70
2.99
2.12
1.01
-0.34
-1.86
-3.45
-5.00
-6.45
-7.74
-8.82
-9.61
-10.05
-10.05
-9.54
-8.52
-7.03
-5.22
-3.30
-1.49
0.03
1.20
2.06
2.76
3.41
4.05
4.63
5.00
5.07
4.86
4.49
4.11
3.85
3.73
3.71
3.72
3.80
4.00
4.36
4.80
5.11
5.07
4.54
3.59
2.43
1.29
0.29
-0.61
-1.60
-2.84
-4.41
-6.23
-8.12
-9.85
-11.20
-11.98
-12.10
-11.49
-10.21
-8.38
-6.17
-3.79
-1.44
0.68
2.43
3.72
4.53
4.91
4.96
4.86
4.76
4.77
4.93
5.22
5.59
5.96
6.26
6.47
6.60
6.66
6.69
6.69
6.58
6.30
5.75
4.87
3.69
2.29
0.84
-0.49
-1.59
-2.44
-3.12
-3.77
-4.53
-5.49
-6.67
-8.02
-9.41
-10.69
-11.66
-12.15
-11.99
-11.10
-9.52
-7.40
-5.01
-2.64
-0.54
1.14
2.33
3.07
3.45
3.60
3.65
3.70
3.84
4.08
4.40
4.77
5.16
5.55
5.92
6.26
6.56
6.82
7.03
7.18
7.20
6.99
6.46
5.55
4.30
2.85
1.36
-0.07
-1.38
-2.61
-3.81
-5.01
-6.22
-7.43
-8.66
-9.93
-11.20
-12.34
-13.07
-13.11
-12.21
-10.33
-7.69
-4.68
-1.75
0.72
2.58
3.86
4.65
5.11
5.31
5.31
5.18
5.02
4.93
4.95
5.05
5.15
5.17
5.06
4.90
4.80
4.85
5.08
5.38
5.57
5.45
4.90
3.92
2.61
1.19
-0.18
-1.35
-2.27
-2.95
-3.47
-3.90
-4.33
-4.88
-5.60
-6.52
-7.54
-8.49
-9.09
-9.13
-8.50
-7.23
-5.45
-3.42
-1.40
0.39
1.78
2.74
3.30
3.53
3.53
3.39
3.21
3.10
3.20
3.57
4.21
4.99
5.73
6.27
6.55
6.60
6.51
6.33
6.05
5.61
5.00
4.27
3.56
2.97
2.49
2.01
1.38
0.48
-0.71
-2.06
-3.39
-4.54
-5.46
-6.17
-6.75
-7.21
-7.46
-7.35
-6.69
-5.43
-3.68
-1.74
0.05
1.40
2.23
2.61
2.76
2.89
3.08
3.29
3.44
3.47
3.45
3.47
3.61
3.90
4.28
4.63
4.85
4.88
4.69
4.27
3.58
2.63
1.49
0.26
-0.91
-1.91
-2.74
-3.47
-4.23
-5.10
-6.14
-7.35
-8.66
-9.98
-11.12
-11.87
-11.99
-11.34
-9.89
-7.79
-5.31
-2.79
-0.49
1.42
2.85
3.85
4.46
4.75
4.75
4.53
4.16
3.77
3.51
3.44
3.61
3.95
4.36
4.73
5.02
5.23
5.33
5.28
4.96
4.32
3.34
2.15
0.91
-0.22
-1.16
-1.99
-2.81
-3.77
-4.94
-6.31
-7.75
-9.11
-10.19
-10.82
-10.88
-10.33
-9.24
-7.70
-5.87
-3.88
-1.84
0.12
1.83
3.13
3.96
4.35
4.43
4.40
4.41
4.54
4.78
5.06
5.35
5.58
5.75
5.79
5.69
5.41
4.96
4.41
3.79
3.12
2.41
1.60
0.68
-0.36
-1.48
-2.67
-3.89
-5.12
-6.33
-7.50
-8.63
-9.65
-10.45
-10.85
-10.65
-9.74
-8.13
-6.01
-3.66
-1.38
0.62
2.24
3.47
4.34
4.89
5.16
5.20
5.09
4.91
4.77
4.72
4.80
4.99
5.24
5.44
5.54
5.50
5.32
5.06
4.73
4.31
3.74
2.94
1.90
0.67
-0.64
-1.89
-3.02
-4.07
-5.14
-6.35
-7.72
-9.16
-10.49
-11.48
-11.91
-11.64
-10.66
-9.06
-7.04
-4.84
-2.68
-0.76
0.81
1.98
2.75
3.19
3.41
3.51
3.59
3.71
3.92
4.20
4.54
4.92
5.33
5.74
6.09
6.33
6.41
6.30
6.02
5.60
5.04
4.30
3.34
2.19
0.92
-0.34
-1.53
-2.66
-3.81
-5.09
-6.55
-8.13
-9.65
-10.85
-11.48
-11.34
-10.37
-8.64
-6.36
-3.81
-1.32
0.84
2.52
3.70
4.43
4.78
4.80
4.50
3.96
3.29
2.70
2.38
2.50
3.05
3.92
4.89
5.72
6.25
6.37
6.09
5.46
4.60
3.59
2.53
1.51
0.54
-0.34
-1.17
-1.97
-2.78
-3.66
-4.66
-5.80
-7.05
-8.26
-9.22
-9.67
-9.37
-8.21
-6.32
-3.98
-1.61
0.41
1.85
2.68
3.05
3.18
3.28
3.47
3.77
4.18
4.63
5.12
5.61
6.10
6.55
6.93
7.24
7.45
7.54
7.45
7.12
6.49
5.58
4.43
3.16
1.87
0.67
-0.44
-1.48
-2.51
-3.62
-4.85
-6.19
-7.56
-8.80
-9.75
-10.26
-10.24
-9.70
-8.71
-7.39
-5.84
-4.18
-2.49
-0.84
0.70
2.08
3.20
4.00
4.43
4.53
4.42
4.26
4.25
4.46
4.87
5.34
5.69
5.84
5.79
5.64
5.51
5.49
5.53
5.53
5.33
4.81
3.92
2.71
1.32
-0.13
-1.52
-2.79
-3.95
-5.06
-6.17
-7.31
-8.46
-9.55
-10.43
-10.95
-10.92
-10.25
-8.95
-7.17
-5.12
-3.03
-1.11
0.56
1.94
3.04
3.90
4.56
5.08
5.50
5.90
6.27
6.58
6.80
6.93
7.00
7.08
7.21
7.38
7.50
7.47
7.27
6.89
6.38
5.72
4.85
3.70
2.28
0.71
-0.81
-2.07
-2.99
-3.67
-4.31
-5.13
-6.27
-7.75
-9.42
-11.03
-12.31
-12.97
-12.87
-11.98
-10.44
-8.45
-6.26
-4.00
-1.77
0.36
2.27
3.84
4.94
5.54
5.71
5.59
5.35
5.11
4.94
4.86
4.87
4.92
4.98
4.97
4.83
4.53
4.05
3.39
2.57
1.61
0.49
-0.78
-2.18
-3.71
-5.30
-6.87
-8.26
-9.35
-10.04
-10.40
-10.63
-10.99
-11.66
-12.65
-13.71
-14.42
-14.26
-12.82
-9.90
-5.60
-0.30
5.45
11.00
15.80
19.49
21.89
23.07
23.17
22.41
20.97
19.00
16.63
14.03
11.39
8.87
6.61
4.65
2.94
1.37
-0.12
-1.55
-2.85
-3.91
-4.67
-5.15
-5.45
-5.73
-6.12
-6.71
-7.47
-8.34
-9.25
-10.17
-11.12
-12.11
-13.07
-13.81
-14.04
-13.47
-11.94
-9.50
-6.41
-3.03
0.22
3.07
5.32
6.89
7.76
8.00
7.76
7.28
6.80
6.52
6.54
6.78
7.13
7.40
7.49
7.35
7.01
6.53
5.94
5.32
4.70
4.15
3.67
3.22
2.73
2.11
1.32
0.38
-0.64
-1.67
-2.74
-3.88
-5.18
-6.66
-8.24
-9.70
-10.77
-11.18
-10.78
-9.54
-7.60
-5.20
-2.63
-0.15
2.01
3.68
4.77
5.30
5.36
5.12
4.73
4.35
4.04
3.83
3.69
3.62
3.63
3.72
3.89
4.09
4.24
4.23
4.00
3.58
3.03
2.49
2.01
1.59
1.12
0.48
-0.42
-1.55
-2.84
-4.16
-5.44
-6.65
-7.77
-8.75
-9.44
-9.65
-9.19
-8.02
-6.22
-4.00
-1.69
0.46
2.24
3.55
4.42
4.92
5.17
5.28
5.28
5.18
5.00
4.74
4.47
4.23
4.07
4.00
3.97
3.94
3.83
3.61
3.24
2.71
2.00
1.07
-0.04
-1.28
-2.54
-3.74
-4.85
-5.96
-7.18
-8.62
-10.29
-12.01
-13.53
-14.53
-14.77
-14.14
-12.69
-10.56
-7.99
-5.24
-2.58
-0.29
1.48
2.66
3.31
3.57
3.64
3.65
3.68
3.73
3.78
3.84
3.91
3.99
4.07
4.13
4.14
4.07
3.89
3.58
3.15
2.60
1.94
1.19
0.36
-0.56
-1.62
-2.86
-4.30
-5.88
-7.51
-9.03
-10.31
-11.28
-11.91
-12.16
-11.98
-11.27
-9.97
-8.08
-5.70
-3.08
-0.48
1.78
3.49
4.56
5.07
5.17
5.06
4.90
4.77
4.67
4.56
4.42
4.26
4.14
4.09
4.11
4.14
4.09
3.91
3.57
3.10
2.51
1.86
1.17
0.50
-0.13
-0.70
-1.22
-1.79
-2.51
-3.51
-4.83
-6.42
-8.00
-9.22
-9.69
-9.16
-7.62
-5.28
-2.54
0.15
2.46
4.21
5.39
6.07
6.37
6.38
6.19
5.88
5.54
5.24
5.04
4.96
4.95
4.98
5.01
5.02
4.98
4.92
4.86
4.79
4.69
4.54
4.27
3.81
3.13
2.21
1.04
-0.33
-1.85
-3.46
-5.08
-6.62
-8.00
-9.15
-9.99
-10.43
-10.35
-9.65
-8.26
-6.24
-3.79
-1.22
1.13
3.02
4.33
5.09
5.43
5.51
5.44
5.26
4.98
4.68
4.44
4.39
4.62
5.11
5.77
6.41
6.89
7.09
6.98
6.57
5.95
5.21
4.42
3.59
2.68
1.61
0.33
-1.09
-2.50
-3.70
-4.60
-5.28
-5.92
-6.73
-7.74
-8.77
-9.48
-9.55
-8.82
-7.36
-5.39
-3.14
-0.84
1.38
3.41
5.14
6.42
7.14
7.27
6.89
6.17
5.35
4.64
4.19
4.08
4.27
4.66
5.09
5.41
5.48
5.21
4.61
3.74
2.74
1.77
0.91
0.20
-0.43
-1.09
-1.88
-2.83
-3.92
-5.09
-6.29
-7.50
-8.70
-9.86
-10.86
-11.52
-11.67
-11.24
-10.26
-8.83
-7.11
-5.24
-3.33
-1.47
0.22
1.65
2.71
3.40
3.79
4.01
4.19
4.44
4.82
5.33
5.93
6.53
7.02
7.30
7.27
6.88
6.13
5.12
3.97
2.78
1.65
0.59
-0.44
-1.50
-2.61
-3.71
-4.70
-5.47
-6.06
-6.58
-7.22
-8.14
-9.28
-10.40
-11.09
-10.97
-9.84
-7.76
-5.03
-2.09
0.69
3.08
4.94
6.25
7.03
7.33
7.29
7.12
7.05
7.27
7.79
8.47
9.10
9.53
9.69
9.65
9.52
9.31
8.98
8.45
7.67
6.68
5.62
4.64
3.78
3.03
2.27
1.43
0.52
-0.43
-1.37
-2.33
-3.36
-4.49
-5.66
-6.63
-7.13
-6.91
-5.96
-4.48
-2.84
-1.42
-0.42
0.11
0.31
0.35
0.36
0.39
0.44
0.50
0.55
0.60
0.67
0.73
0.79
0.80
0.78
0.71
0.61
0.49
0.34
0.18
-0.01
-0.23
-0.47
-0.72
-0.99
-1.32
-1.79
-2.47
-3.39
-4.46
-5.52
-6.34
-6.69
-6.41
-5.48
-3.99
-2.18
-0.30
1.42
2.76
3.66
4.09
4.16
4.00
3.79
3.66
3.67
3.77
3.85
3.80
3.60
3.34
3.18
3.23
3.51
3.84
4.01
3.83
3.26
2.46
1.65
0.99
0.52
0.13
-0.32
-0.96
-1.79
-2.69
-3.61
-4.52
-5.46
-6.46
-7.42
-8.10
-8.20
-7.49
-5.97
-3.89
-1.69
0.19
1.49
2.20
2.50
2.66
2.86
3.18
3.56
3.92
4.25
4.57
4.98
5.50
6.06
6.49
6.62
6.39
5.87
5.24
4.67
4.25
3.95
3.62
3.12
2.38
1.42
0.37
-0.60
-1.38
-1.97
-2.44
-2.93
-3.59
-4.52
-5.66
-6.87
-7.93
-8.61
-8.74
-8.24
-7.15
-5.62
-3.88
-2.17
-0.73
0.30
0.91
1.21
1.32
1.37
1.41
1.45
1.50
1.59
1.77
2.07
2.48
2.94
3.34
3.58
3.61
3.39
2.97
2.44
1.90
1.46
1.17
1.03
0.98
0.96
0.90
0.78
0.62
0.42
0.15
-0.22
-0.74
-1.38
-2.07
-2.68
-3.14
-3.43
-3.62
-3.83
-4.15
-4.61
-5.12
-5.60
-5.94
-6.16
-6.36
-6.67
-7.17
-7.85
-8.55
-9.06
-9.15
-8.68
-7.63
-6.12
-4.37
-2.62
-1.11
-0.00
0.61
0.77
0.59
0.26
-0.02
-0.09
0.13
0.60
1.22
1.84
2.30
2.52
2.45
2.19
1.87
1.66
1.67
1.91
2.26
2.53
2.55
2.23
1.64
0.93
0.30
-0.12
-0.33
-0.40
-0.44
-0.53
-0.67
-0.85
-1.07
-1.37
-1.79
-2.37
-3.08
-3.81
-4.47
-4.98
-5.32
-5.53
-5.61
-5.53
-5.17
-4.42
-3.22
-1.68
-0.04
1.42
2.44
2.94
2.98
2.72
2.33
1.95
1.62
1.37
1.24
1.25
1.45
1.79
2.19
2.52
2.63
2.47
2.06
1.46
0.77
0.09
-0.47
-0.80
-0.84
-0.61
-0.21
0.19
0.41
0.36
0.05
-0.43
-1.00
-1.59
-2.21
-2.87
-3.56
-4.24
-4.83
-5.27
-5.56
-5.69
-5.63
-5.27
-4.47
-3.17
-1.47
0.40
2.13
3.48
4.38
4.92
5.28
5.60
5.89
6.12
6.20
6.08
5.81
5.50
5.25
5.20
5.37
5.71
6.10
6.33
6.22
5.70
4.83
3.77
2.72
1.77
0.88
-0.04
-1.06
-2.13
-3.12
-3.88
-4.36
-4.66
-4.92
-5.26
-5.68
-6.13
-6.53
-6.83
-7.07
-7.23
-7.26
-7.00
-6.32
-5.20
-3.79
-2.38
-1.28
-0.65
-0.51
-0.71
-1.06
-1.38
-1.55
-1.54
-1.34
-0.99
-0.56
-0.16
0.17
0.44
0.70
1.05
1.52
2.10
2.67
3.11
3.33
3.31
3.04
2.54
1.82
0.84
-0.35
-1.66
-2.95
-4.05
-4.82
-5.24
-5.39
-5.42
-5.48
-5.61
-5.76
-5.74
-5.39
-4.59
-3.38
-1.94
-0.53
0.62
1.38
1.75
1.84
1.76
1.62
1.46
1.27
1.08
0.92
0.83
0.88
1.10
1.49
2.04
2.68
3.34
3.90
4.25
4.29
3.98
3.33
2.43
1.38
0.26
-0.85
-1.86
-2.68
-3.20
-3.38
-3.30
-3.16
-3.18
-3.53
-4.19
-4.93
-5.43
-5.38
-4.71
-3.58
-2.39
-1.53
-1.29
-1.73
-2.69
-3.91
-5.14
-6.27
-7.24
-8.10
-8.84
-9.44
-9.83
-9.98
-9.86
-9.53
-9.01
-8.26
-7.13
-5.42
-2.98
0.20
3.95
7.96
11.84
15.27
18.01
19.84
20.55
19.93
17.86
14.46
10.17
5.67
1.71
-1.16
-2.73
-3.10
-2.60
-1.58
-0.31
1.06
2.43
3.68
4.69
5.35
5.63
5.54
5.14
4.47
3.55
2.39
1.04
-0.44
-1.95
-3.34
-4.45
-5.14
-5.31
-5.00
-4.33
-3.57
-3.01
-2.87
-3.17
-3.78
-4.43
-4.86
-4.99
-4.84
-4.56
-4.29
-4.11
-4.01
-3.90
-3.68
-3.20
-2.32
-0.93
1.04
3.57
6.47
9.39
11.95
13.80
14.80
14.99
14.62
13.96
13.15
12.22
11.09
9.75
8.30
6.94
5.88
5.20
4.81
4.45
3.89
3.00
1.85
0.64
-0.43
-1.30
-2.01
-2.66
-3.36
-4.13
-4.95
-5.76
-6.49
-7.10
-7.53
-7.68
-7.48
-6.86
-5.86
-4.59
-3.24
-1.99
-0.96
-0.21
0.32
0.73
1.17
1.74
2.47
3.30
4.09
4.70
5.05
5.15
5.10
4.98
4.83
4.64
4.33
3.88
3.34
2.78
2.30
1.93
1.62
1.24
0.69
-0.05
-0.94
-1.89
-2.82
-3.68
-4.52
-5.34
-6.17
-6.89
-7.34
-7.32
-6.71
-5.53
-3.95
-2.31
-0.94
-0.09
0.20
0.05
-0.27
-0.48
-0.40
-0.04
0.47
0.97
1.31
1.51
1.64
1.81
2.14
2.66
3.34
4.09
4.76
5.24
5.50
5.56
5.48
5.30
4.92
4.20
3.01
1.36
-0.57
-2.53
-4.28
-5.74
-6.95
-8.01
-8.93
-9.59
-9.83
-9.56
-8.87
-7.96
-7.04
-6.20
-5.34
-4.32
-3.08
-1.73
-0.51
0.37
0.79
0.82
0.60
0.33
0.08
-0.11
-0.21
-0.17
0.08
0.53
1.08
1.53
1.72
1.61
1.25
0.79
0.37
0.01
-0.29
-0.53
-0.68
-0.62
-0.29
0.32
1.16
2.08
2.91
3.47
3.62
3.31
2.65
1.88
1.34
1.29
1.80
2.69
3.66
4.36
4.59
4.39
3.88
3.29
2.75
2.33
2.05
1.89
1.84
1.88
2.01
2.24
2.54
2.88
3.20
3.40
3.39
3.09
2.49
1.63
0.60
-0.50
-1.58
-2.58
-3.48
-4.27
-4.98
-5.63
-6.20
-6.71
-7.17
-7.62
-8.09
-8.56
-8.89
-8.87
-8.28
-7.08
-5.43
-3.68
-2.17
-1.11
-0.46
-0.02
0.38
0.80
1.20
1.47
1.56
1.48
1.30
1.13
1.02
1.04
1.29
1.83
2.68
3.75
4.89
5.91
6.69
7.16
7.31
7.11
6.54
5.57
4.24
2.70
1.11
-0.37
-1.69
-2.90
-4.12
-5.44
-6.88
-8.33
-9.54
-10.28
-10.33
-9.62
-8.23
-6.38
-4.36
-2.46
-0.85
0.39
1.30
1.99
2.56
3.11
3.67
4.28
4.97
5.72
6.52
7.26
7.84
8.15
8.17
8.01
7.82
7.81
8.05
8.52
9.03
9.40
9.46
9.15
8.50
7.59
6.50
5.26
3.90
2.43
0.89
-0.66
-2.16
-3.55
-4.79
-5.88
-6.77
-7.41
-7.66
-7.37
-6.39
-4.67
-2.28
0.54
3.42
5.91
7.66
8.46
8.32
7.46
6.26
5.08
4.24
3.94
4.21
5.00
6.11
7.22
8.01
8.22
7.76
6.75
5.45
4.06
2.65
1.13
-0.56
-2.37
-4.05
-5.28
-5.85
-5.80
-5.46
-5.23
-5.44
-6.17
-7.34
-8.75
-10.23
-11.65
-12.91
-13.91
-14.52
-14.63
-14.19
-13.22
-11.79
-10.01
-8.04
-6.07
-4.31
-2.89
-1.85
-1.13
-0.55
0.06
0.81
1.68
2.59
3.43
4.16
4.79
5.40
6.00
6.58
7.07
7.40
7.57
7.64
7.70
7.81
7.94
8.03
8.03
7.94
7.82
7.73
7.64
7.45
7.05
6.41
5.62
4.85
4.26
3.86
3.51
3.01
2.28
1.43
0.75
0.56
1.00
1.91
2.98
3.80
4.17
4.09
3.78
3.51
3.46
3.62
3.87
4.06
4.09
3.96
3.73
3.45
3.15
2.78
2.31
1.76
1.20
0.73
0.41
0.23
0.10
-0.10
-0.39
-0.78
-1.17
-1.50
-1.75
-2.03
-2.43
-3.04
-3.84
-4.72
-5.56
-6.28
-6.83
-7.23
-7.46
-7.45
-7.06
-6.22
-4.97
-3.57
-2.34
-1.54
-1.26
-1.39
-1.64
-1.78
-1.70
-1.46
-1.18
-0.97
-0.78
-0.54
-0.17
0.31
0.79
1.15
1.37
1.52
1.72
2.03
2.36
2.53
2.30
1.59
0.50
-0.68
-1.64
-2.15
-2.21
-1.97
-1.69
-1.56
-1.68
-2.05
-2.60
-3.28
-4.02
-4.72
-5.23
-5.36
-4.96
-4.01
-2.65
-1.15
0.16
0.99
1.21
0.86
0.14
-0.70
-1.43
-1.89
-2.05
-1.98
-1.81
-1.64
-1.48
-1.27
-0.94
-0.47
0.06
0.51
0.77
0.84
0.78
0.66
0.53
0.28
-0.16
-0.84
-1.67
-2.45
-3.04
-3.36
-3.49
-3.59
-3.82
-4.25
-4.84
-5.51
-6.11
-6.52
-6.61
-6.32
-5.68
-4.78
-3.80
-2.91
-2.23
-1.84
-1.69
-1.72
-1.80
-1.82
-1.73
-1.50
-1.22
-0.99
-0.86
-0.84
-0.83
-0.74
-0.52
-0.21
0.10
0.33
0.46
0.60
0.84
1.27
1.82
2.35
2.68
2.72
2.46
1.97
1.28
0.38
-0.77
-2.20
-3.77
-5.27
-6.42
-7.05
-7.12
-6.76
-6.21
-5.71
-5.40
-5.32
-5.44
-5.66
-5.88
-6.00
-5.86
-5.39
-4.51
-3.28
-1.85
-0.38
0.94
2.05
2.96
3.70
4.28
4.61
4.59
4.16
3.37
2.36
1.32
0.38
-0.40
-1.05
-1.61
-2.09
-2.51
-2.87
-3.19
-3.47
-3.64
-3.56
-3.11
-2.20
-0.92
0.48
1.76
2.70
3.28
3.60
3.81
3.97
4.00
3.81
3.34
2.67
2.02
1.61
1.56
1.77
2.04
2.09
1.80
1.26
0.68
0.33
0.40
0.88
1.64
2.45
3.10
3.44
3.40
2.97
2.15
0.98
-0.52
-2.21
-3.87
-5.18
-5.84
-5.66
-4.69
-3.20
-1.60
-0.24
0.70
1.22
1.47
1.62
1.78
1.95
2.10
2.16
2.08
1.80
1.29
0.60
-0.17
-0.85
-1.27
-1.32
-1.02
-0.52
-0.00
0.39
0.57
0.56
0.43
0.22
-0.01
-0.26
-0.54
-0.85
-1.16
-1.40
-1.39
-0.96
0.05
1.67
3.75
5.91
7.73
8.85
9.14
8.71
7.84
6.86
5.98
5.31
4.84
4.57
4.50
4.66
5.05
5.57
6.07
6.37
6.34
5.96
5.28
4.41
3.42
2.37
1.29
0.19
-0.88
-1.89
-2.83
-3.73
-4.69
-5.85
-7.27
-8.89
-10.50
-11.79
-12.43
-12.20
-11.10
-9.36
-7.37
-5.56
-4.29
-3.71
-3.73
-4.09
-4.47
-4.56
-4.22
-3.50
-2.61
-1.82
-1.39
-1.45
-2.03
-3.08
-4.43
-5.75
-6.55
-6.22
-4.44
-1.33
2.37
5.60
7.34
7.17
5.34
2.67
0.07
-1.87
-2.97
-3.37
-3.18
-2.42
-1.01
0.98
3.29
5.50
7.25
8.42
9.15
9.72
10.38
11.23
12.22
13.19
13.96
14.31
14.12
13.28
11.86
10.08
8.28
6.75
5.59
4.72
3.86
2.83
1.62
0.45
-0.30
-0.32
0.51
1.97
3.66
5.06
5.80
5.71
4.86
3.57
2.22
1.15
0.53
0.34
0.39
0.48
0.50
0.43
0.37
0.40
0.55
0.80
1.15
1.63
2.35
3.46
4.97
6.77
8.61
10.18
11.30
11.93
12.23
12.40
12.62
12.90
13.15
13.19
12.83
11.99
10.70
9.09
7.39
5.75
4.29
3.00
1.82
0.64
-0.64
-2.13
-3.93
-6.10
-8.66
-11.49
-14.34
-16.83
-18.60
-19.44
-19.37
-18.67
-17.71
-16.88
-16.42
-16.40
-16.72
-17.15
-17.42
-17.26
-16.53
-15.25
-13.62
-11.92
-10.40
-9.19
-8.31
-7.73
-7.43
-7.41
-7.63
-7.98
-8.29
-8.42
-8.33
-8.13
-7.95
-7.79
-7.52
-6.88
-5.62
-3.71
-1.25
1.53
4.42
7.31
10.12
12.71
14.88
16.40
17.16
17.19
16.67
15.84
14.89
13.92
12.94
11.99
11.12
10.41
9.90
9.53
9.21
8.87
8.48
8.20
8.27
9.00
10.59
13.05
16.12
19.36
22.27
24.47
25.84
26.53
26.75
26.59
25.85
24.10
20.82
15.80
9.27
1.90
-5.35
-11.56
-16.13
-18.86
-19.90
-19.59
-18.31
-16.36
-14.07
-11.77
-9.84
-8.61
-8.26
-8.75
-9.76
-10.88
-11.79
-12.44
-13.03
-13.91
-15.33
-17.32
-19.71
-22.24
-24.69
-26.97
-29.06
-30.96
-32.57
-33.60
-33.65
-32.36
-29.59
-25.51
-20.64
-15.61
-11.02
-7.20
-4.20
-1.80
0.20
1.88
3.22
4.13
4.68
5.07
5.62
6.49
7.64
8.82
9.73
10.18
10.21
10.00
9.78
9.65
9.55
9.31
8.69
7.57
5.99
4.16
2.35
0.83
-0.28
-0.97
-1.34
-1.54
-1.71
-1.92
-2.15
-2.32
-2.31
-2.03
-1.42
-0.53
0.54
1.71
2.91
4.09
5.11
5.79
5.88
5.33
4.36
3.54
3.43
4.36
6.08
7.92
9.07
9.00
7.75
5.86
4.00
2.62
1.72
0.98
0.01
-1.32
-2.81
-4.03
-4.61
-4.43
-3.75
-3.01
-2.64
-2.80
-3.33
-3.88
-4.08
-3.81
-3.21
-2.58
-2.19
-2.15
-2.35
-2.61
-2.76
-2.80
-2.81
-2.90
-3.08
-3.21
-3.14
-2.68
-1.78
-0.56
0.73
1.82
2.45
2.56
2.22
1.63
1.05
0.64
0.48
0.51
0.65
0.87
1.21
1.79
2.70
4.00
5.57
7.17
8.53
9.35
9.47
8.87
7.66
6.14
4.61
3.28
2.19
1.19
0.04
-1.51
-3.57
-6.06
-8.76
-11.37
-13.63
-15.28
-16.12
-16.00
-14.83
-12.67
-9.78
-6.61
-3.67
-1.37
0.19
1.24
2.18
3.35
4.78
6.16
6.97
6.86
5.81
4.22
2.72
1.74
1.40
1.42
1.42
1.16
0.70
0.32
0.24
0.45
0.69
0.63
0.13
-0.65
-1.30
-1.48
-1.07
-0.31
0.36
0.54
0.11
-0.78
-1.79
-2.56
-2.86
-2.61
-1.89
-0.86
0.22
1.14
1.71
1.89
1.83
1.78
1.93
2.33
2.83
3.22
3.32
3.05
2.47
1.74
1.10
0.95
1.81
4.14
8.07
13.12
18.26
22.28
24.31
24.30
22.92
21.14
19.66
18.49
17.09
14.79
11.31
6.96
2.50
-1.27
-3.90
-5.36
-5.96
-6.03
-5.77
-5.26
-4.48
-3.52
-2.52
-1.69
-1.24
-1.29
-1.88
-2.92
-4.21
-5.48
-6.49
-7.05
-7.16
-7.07
-7.18
-7.91
-9.38
-11.31
-13.12
-14.13
-13.97
-12.75
-10.93
-9.12
-7.79
-7.19
-7.38
-8.32
-9.96
-12.09
-14.21
-15.58
-15.48
-13.56
-10.15
-6.20
-2.90
-1.18
-1.30
-2.82
-4.79
-6.28
-6.67
-5.89
-4.27
-2.33
-0.47
1.17
2.72
4.38
6.28
8.32
10.26
11.84
12.93
13.58
13.96
14.24
14.44
14.46
14.13
13.36
12.24
11.01
9.93
9.11
8.42
7.51
6.05
3.86
1.06
-2.00
-4.96
-7.60
-9.94
-12.09
-14.11
-15.84
-17.01
-17.40
-17.02
-16.15
-15.23
-14.67
-14.69
-15.26
-16.14
-16.99
-17.52
-17.52
-16.93
-15.81
-14.35
-12.77
-11.26
-9.88
-8.56
-7.15
-5.54
-3.71
-1.78
0.08
1.71
2.96
3.78
4.17
4.17
3.91
3.55
3.27
3.24
3.55
4.23
5.20
6.33
7.50
8.61
9.65
10.66
11.69
12.82
14.11
15.60
17.39
19.63
22.46
25.94
29.86
33.79
37.18
39.57
40.77
40.99
40.64
40.19
39.94
39.84
39.61
38.81
37.12
34.37
30.55
25.71
19.89
13.19
5.85
-1.61
-8.52
-14.13
-17.94
-19.87
-20.30
-19.89
-19.31
-19.01
-19.17
-19.79
-20.82
-22.26
-24.08
-26.09
-27.91
-29.12
-29.35
-28.53
-26.80
-24.42
-21.64
-18.58
-15.28
-11.77
-8.25
-4.95
-2.16
0.02
1.61
2.77
3.62
4.18
4.40
4.20
3.64
2.86
2.06
1.38
0.82
0.32
-0.20
-0.77
-1.32
-1.72
-1.88
-1.78
-1.53
-1.31
-1.33
-1.70
-2.47
-3.59
-4.92
-6.29
-7.50
-8.34
-8.66
-8.38
-7.55
-6.28
-4.71
-2.95
-1.11
0.70
2.33
3.58
4.34
4.63
4.61
4.53
4.56
4.73
4.91
4.92
4.68
4.22
3.71
3.33
3.16
3.18
3.29
3.37
3.29
3.00
2.43
1.59
0.48
-0.85
-2.30
-3.77
-5.10
-6.21
-7.06
-7.74
-8.43
-9.32
-10.42
-11.51
-12.18
-12.05
-10.97
-9.15
-7.04
-5.15
-3.74
-2.79
-2.07
-1.37
-0.70
-0.25
-0.25
-0.73
-1.46
-2.12
-2.47
-2.47
-2.23
-1.88
-1.38
-0.61
0.54
1.99
3.45
4.52
4.84
4.29
3.03
1.33
-0.47
-2.11
-3.42
-4.27
-4.67
-4.72
-4.70
-4.88
-5.43
-6.29
-7.18
-7.71
-7.62
-6.79
-5.37
-3.63
-1.86
-0.24
1.12
2.22
3.15
4.02
4.94
6.01
7.24
8.59
9.92
11.10
11.99
12.52
12.67
12.43
11.81
10.90
9.79
8.64
7.53
6.47
5.44
4.36
3.26
2.17
1.16
0.28
-0.51
-1.25
-1.94
-2.55
-3.04
-3.44
-3.82
-4.23
-4.59
-4.69
-4.26
-3.10
-1.22
1.05
3.22
4.84
5.67
5.74
5.33
4.77
4.29
3.96
3.74
3.56
3.45
3.46
3.61
3.83
3.93
3.76
3.33
2.84
2.60
2.83
3.50
4.31
4.92
5.11
4.94
4.67
4.55
4.64
4.78
4.73
4.28
3.46
2.41
1.35
0.35
-0.59
-1.52
-2.42
-3.16
-3.52
-3.34
-2.55
-1.21
0.47
2.24
3.84
5.04
5.70
5.86
5.68
5.44
5.41
5.77
6.52
7.52
8.51
9.25
9.55
9.26
8.30
6.65
4.44
1.91
-0.61
-2.83
-4.62
-6.04
-7.27
-8.50
-9.81
-11.12
-12.30
-13.26
-14.01
-14.65
-15.30
-15.94
-16.41
-16.43
-15.71
-14.13
-11.73
-8.78
-5.60
-2.49
0.37
3.01
5.53
8.06
10.61
13.07
15.19
16.78
17.78
18.32
18.69
19.18
20.01
21.15
22.41
23.53
24.25
24.49
24.30
23.86
23.35
22.94
22.78
23.00
23.64
24.52
25.04
24.15
20.61
13.45
2.50
-11.31
-26.22
-40.23
-51.74
-60.02
-65.08
-67.29
-66.99
-64.32
-59.48
-52.97
-45.67
-38.61
-32.58
-27.78
-23.88
-20.21
-16.27
-11.86
-7.14
-2.44
1.92
5.76
9.06
11.84
14.13
15.94
17.29
18.18
18.59
18.52
17.97
16.95
15.55
13.90
12.17
10.55
9.15
7.95
6.84
5.65
4.29
2.79
1.28
-0.09
-1.32
-2.49
-3.77
-5.11
-6.18
-6.40
-5.15
-2.18
2.17
7.02
11.32
14.23
15.54
15.57
14.93
14.17
13.45
12.63
11.47
9.88
8.06
6.45
5.44
5.21
5.61
6.26
6.79
6.98
6.88
6.73
6.82
7.25
7.87
8.36
8.37
7.78
6.73
5.62
4.87
4.82
5.56
7.05
9.14
11.66
14.42
17.07
19.07
19.78
18.64
15.48
10.63
4.84
-1.00
-6.18
-10.26
-13.18
-15.11
-16.29
-17.03
-17.66
-18.56
-20.03
-22.15
-24.74
-27.38
-29.69
-31.53
-33.09
-34.72
-36.65
-38.74
-40.41
-40.93
-39.76
-36.79
-32.40
-27.23
-21.86
-16.64
-11.67
-7.00
-2.77
0.66
2.91
3.81
3.58
2.75
1.94
1.58
1.73
2.15
2.50
2.61
2.56
2.63
3.07
3.94
5.03
5.96
6.41
6.26
5.70
5.07
4.72
4.81
5.28
5.90
6.37
6.52
6.29
5.79
5.16
4.51
3.94
3.57
3.55
4.03
5.04
6.42
7.82
8.79
9.01
8.39
7.08
5.39
3.66
2.13
0.96
0.22
-0.05
0.19
0.93
2.03
3.33
4.59
5.66
6.49
7.12
7.68
8.30
9.07
10.07
11.26
12.53
13.63
14.30
14.31
13.63
12.44
11.10
9.97
9.24
8.87
8.64
8.31
7.71
6.91
6.03
5.23
4.53
3.86
3.09
2.15
1.06
-0.12
-1.34
-2.58
-3.82
-5.00
-5.97
-6.55
-6.60
-6.06
-5.02
-3.62
-2.06
-0.51
0.90
2.09
3.06
3.80
4.33
4.63
4.68
4.45
3.95
3.24
2.45
1.74
1.24
0.97
0.89
0.83
0.65
0.22
-0.51
-1.49
-2.65
-3.88
-5.11
-6.28
-7.35
-8.26
-8.95
-9.43
-9.74
-10.04
-10.47
-11.08
-11.74
-12.19
-12.08
-11.12
-9.28
-6.70
-3.73
-0.75
1.94
4.17
5.87
7.07
7.84
8.27
8.39
8.20
7.64
6.61
5.04
2.99
0.65
-1.66
-3.59
-4.86
-5.39
-5.29
-4.80
-4.24
-3.83
-3.71
-3.89
-4.31
-4.90
-5.56
-6.21
-6.78
-7.19
-7.44
-7.55
-7.62
-7.71
-7.84
-7.92
-7.73
-7.10
-5.89
-4.15
-2.04
0.15
2.14
3.74
4.89
5.64
6.15
6.59
7.03
7.44
7.72
7.78
7.63
7.37
7.14
7.01
6.93
6.78
6.43
5.88
5.22
4.62
4.17
3.82
3.37
2.60
1.42
-0.11
-1.76
-3.32
-4.63
-5.70
-6.59
-7.33
-7.86
-8.01
-7.65
-6.69
-5.22
-3.45
-1.69
-0.20
0.84
1.39
1.58
1.61
1.72
2.11
2.83
3.74
4.65
5.33
5.70
5.82
5.82
5.81
5.79
5.67
5.29
4.62
3.69
2.67
1.73
0.94
0.22
-0.68
-1.96
-3.75
-5.93
-8.22
-10.27
-11.88
-12.96
-13.49
-13.28
-12.00
-9.32
-5.31
-0.62
3.60
6.26
6.85
5.77
4.08
2.90
2.81
3.69
4.86
5.73
6.06
6.05
6.02
6.05
5.94
5.35
4.14
2.50
0.84
-0.40
-1.14
-1.62
-2.22
-3.16
-4.38
-5.49
-6.08
-5.98
-5.37
-4.70
-4.42
-4.77
-5.64
-6.75
-7.71
-8.29
-8.36
-7.89
-6.88
-5.36
-3.46
-1.44
0.36
1.63
2.27
2.42
2.40
2.58
3.16
4.09
5.09
5.80
5.98
5.60
4.87
4.10
3.57
3.36
3.39
3.46
3.38
3.05
2.48
1.76
1.00
0.23
-0.52
-1.27
-2.05
-2.82
-3.54
-4.17
-4.70
-5.15
-5.56
-5.97
-6.37
-6.66
-6.68
-6.26
-5.29
-3.84
-2.12
-0.47
0.81
1.57
1.89
2.00
2.15
2.48
2.94
3.32
3.44
3.21
2.73
2.22
1.93
2.00
2.47
3.27
4.30
5.48
6.69
7.79
8.59
8.89
8.57
7.69
6.45
5.17
4.16
3.59
3.48
3.65
3.87
3.85
3.41
2.53
1.40
0.35
-0.26
-0.18
0.61
1.89
3.31
4.49
5.22
5.48
5.36
5.04
4.64
4.21
3.82
3.50
3.31
3.22
3.19
3.15
3.03
2.86
2.69
2.61
2.63
2.69
2.67
2.41
1.81
0.83
-0.47
-1.91
-3.32
-4.51
-5.38
-5.89
-6.10
-6.14
-6.17
-6.32
-6.68
-7.29
-8.04
-8.74
-9.10
-8.86
-7.87
-6.22
-4.21
-2.28
-0.81
-0.03
0.09
-0.23
-0.66
-0.80
-0.30
1.14
3.64
7.01
10.79
14.28
16.79
17.90
17.53
15.97
13.68
11.12
8.58
6.22
4.10
2.21
0.59
-0.81
-2.05
-3.27
-4.58
-6.03
-7.55
-9.01
-10.26
-11.22
-11.83
-12.10
-12.00
-11.47
-10.46
-8.94
-7.06
-5.02
-3.09
-1.46
-0.17
0.85
1.69
2.37
2.83
2.95
2.70
2.24
1.84
1.80
2.22
2.95
3.66
4.01
3.85
3.28
2.63
2.19
2.08
2.20
2.27
2.07
1.48
0.61
-0.37
-1.25
-1.94
-2.43
-2.74
-2.92
-2.98
-2.94
-2.92
-3.07
-3.53
-4.39
-5.54
-6.75
-7.69
-8.07
-7.75
-6.79
-5.43
-4.04
-2.92
-2.25
-1.96
-1.84
-1.62
-1.22
-0.72
-0.30
-0.07
0.12
0.70
2.16
4.86
8.81
13.66
18.81
23.57
27.21
28.98
28.21
24.44
17.77
8.96
-0.59
-9.31
-15.96
-20.02
-21.75
-21.86
-21.11
-20.01
-18.76
-17.41
-16.04
-14.77
-13.77
-13.05
-12.43
-11.65
-10.44
-8.74
-6.63
-4.33
-2.08
-0.09
1.49
2.57
3.14
3.27
3.11
2.85
2.70
2.76
3.00
3.24
3.31
3.09
2.61
2.06
1.63
1.48
1.60
1.86
2.12
2.28
2.32
2.29
2.20
2.06
1.82
1.46
1.00
0.53
0.16
-0.06
-0.15
-0.20
-0.30
-0.53
-0.92
-1.39
-1.87
-2.21
-2.28
-1.98
-1.29
-0.28
0.87
1.93
2.71
3.10
3.14
2.96
2.76
2.69
2.80
3.02
3.22
3.27
3.08
2.66
2.14
1.70
1.48
1.51
1.64
1.67
1.39
0.69
-0.34
-1.49
-2.51
-3.25
-3.65
-3.83
-3.92
-3.98
-4.03
-4.05
-4.04
-4.06
-4.25
-4.69
-5.36
-6.12
-6.69
-6.75
-6.11
-4.73
-2.83
-0.76
1.09
2.41
3.12
3.26
3.05
2.73
2.54
2.58
2.88
3.33
3.73
3.89
3.69
3.11
2.30
1.53
1.08
1.15
1.78
2.79
3.87
4.65
4.89
4.52
3.70
2.69
1.76
1.05
0.54
0.10
-0.40
-1.04
-1.89
-2.94
-4.16
-5.44
-6.60
-7.39
-7.60
-7.14
-6.14
-4.94
-3.89
-3.24
-3.00
-3.00
-2.99
-2.81
-2.42
-1.89
-1.32
-0.75
-0.21
0.31
0.78
1.15
1.36
1.42
1.37
1.24
1.11
0.97
0.86
0.79
0.79
0.90
1.04
1.14
1.06
0.77
0.37
-0.02
-0.23
-0.28
-0.34
-0.73
-1.68
-3.21
-5.02
-6.60
-7.45
-7.29
-6.25
-4.78
-3.43
-2.57
-2.29
-2.47
-2.85
-3.24
-3.52
-3.63
-3.52
-3.17
-2.55
-1.74
-0.91
-0.22
0.26
0.52
0.62
0.54
0.21
-0.47
-1.51
-2.70
-3.72
-4.25
-4.13
-3.48
-2.59
-1.84
-1.48
-1.55
-1.94
-2.44
-2.89
-3.15
-3.12
-2.69
-1.75
-0.30
1.52
3.37
4.85
5.66
5.79
5.50
5.25
5.44
6.23
7.46
8.74
9.65
9.95
9.67
9.03
8.32
7.75
7.39
7.15
6.87
6.42
5.71
4.74
3.52
2.05
0.33
-1.61
-3.69
-5.76
-7.62
-9.10
-10.16
-10.84
-11.27
-11.52
-11.52
-11.05
-9.90
-7.97
-5.42
-2.66
-0.17
1.65
2.61
2.83
2.60
2.29
2.14
2.23
2.47
2.69
2.71
2.48
2.07
1.64
1.34
1.28
1.41
1.63
1.80
1.84
1.79
1.74
1.81
1.96
2.05
1.87
1.25
0.17
-1.20
-2.60
-3.77
-4.58
-5.01
-5.10
-4.85
-4.23
-3.23
-1.93
-0.51
0.81
1.88
2.66
3.28
3.86
4.49
5.13
5.69
6.02
6.04
5.72
5.11
4.34
3.57
2.92
2.48
2.22
2.04
1.87
1.62
1.32
1.02
0.78
0.59
0.41
0.16
-0.27
-0.94
-1.88
-3.02
-4.16
-5.00
-5.26
-4.78
-3.60
-2.02
-0.45
0.77
1.47
1.73
1.79
1.88
2.15
2.59
3.09
3.53
3.83
3.99
4.04
4.05
4.02
3.94
3.78
3.51
3.13
2.69
2.23
1.81
1.47
1.19
0.95
0.68
0.36
0.00
-0.40
-0.85
-1.41
-2.15
-3.11
-4.23
-5.30
-6.08
-6.36
-6.02
-5.14
-3.93
-2.65
-1.50
-0.56
0.18
0.85
1.53
2.27
2.99
3.56
3.82
3.67
3.17
2.54
2.04
1.87
2.07
2.59
3.25
3.92
4.53
5.04
5.42
5.59
5.47
5.02
4.34
3.56
2.83
2.19
1.56
0.78
-0.22
-1.40
-2.65
-3.80
-4.71
-5.26
-5.33
-4.86
-3.84
-2.40
-0.77
0.75
1.90
2.59
2.86
2.88
2.80
2.71
2.61
2.47
2.27
2.01
1.73
1.47
1.30
1.28
1.43
1.77
2.25
2.81
3.35
3.76
3.93
3.81
3.38
2.72
1.97
1.29
0.78
0.46
0.28
0.05
-0.40
-1.16
-2.23
-3.45
-4.60
-5.42
-5.73
-5.46
-4.66
-3.47
-2.10
-0.76
0.37
1.22
1.79
2.19
2.56
2.98
3.46
3.91
4.20
4.24
4.05
3.75
3.47
3.35
3.37
3.47
3.51
3.39
3.10
2.69
2.28
1.97
1.77
1.62
1.40
1.02
0.48
-0.16
-0.75
-1.23
-1.59
-1.92
-2.32
-2.86
-3.53
-4.27
-5.00
-5.62
-6.01
-6.07
-5.67
-4.77
-3.48
-2.00
-0.59
0.56
1.39
1.98
2.46
2.92
3.35
3.65
3.74
3.64
3.43
3.24
3.17
3.24
3.43
3.66
3.87
4.02
4.08
3.99
3.74
3.33
2.81
2.29
1.86
1.59
1.49
1.49
1.45
1.25
0.82
0.19
-0.50
-1.09
-1.42
-1.49
-1.41
-1.34
-1.45
-1.76
-2.19
-2.61
-2.94
-3.14
-3.29
-3.51
-3.85
-4.32
-4.84
-5.29
-5.55
-5.58
-5.37
-5.00
-4.50
-3.87
-3.13
-2.30
-1.45
-0.72
-0.22
0.03
0.12
0.23
0.51
1.02
1.71
2.42
2.99
3.31
3.32
3.01
2.44
1.71
0.95
0.31
-0.12
-0.36
-0.47
-0.59
-0.80
-1.13
-1.56
-2.10
-2.78
-3.68
-4.82
-6.16
-7.59
-8.98
-10.17
-11.01
-11.35
-11.06
-10.09
-8.52
-6.56
-4.55
-2.79
-1.45
-0.46
0.30
0.99
1.62
2.04
2.09
1.70
0.92
-0.08
-1.11
-2.04
-2.84
-3.53
-4.12
-4.53
-4.68
-4.49
-3.97
-3.21
-2.34
-1.48
-0.75
-0.20
0.20
0.44
0.58
0.65
0.63
0.50
0.20
-0.28
-0.93
-1.66
-2.38
-3.03
-3.59
-4.08
-4.53
-4.87
-4.97
-4.69
-3.91
-2.64
-1.02
0.78
2.56
4.18
5.55
6.64
7.40
7.77
7.74
7.37
6.77
6.05
5.31
4.56
3.81
3.08
2.47
2.14
2.22
2.75
3.64
4.63
5.43
5.78
5.55
4.74
3.48
1.93
0.28
-1.39
-3.01
-4.58
-6.01
-7.23
-8.10
-8.55
-8.65
-8.61
-8.72
-9.18
-9.91
-10.65
-11.02
-10.77
-9.93
-8.80
-7.75
-7.00
-6.51
-6.07
-5.47
-4.61
-3.53
-2.29
-0.87
0.81
2.78
4.93
6.99
8.61
9.56
9.85
9.64
9.21
8.75
8.36
8.06
7.87
7.80
7.86
8.06
8.34
8.65
8.85
8.76
8.11
6.71
4.51
1.72
-1.18
-3.59
-4.97
-5.05
-3.97
-2.25
-0.63
0.18
-0.24
-1.96
-4.68
-7.92
-11.18
-14.10
-16.52
-18.45
-19.95
-21.06
-21.70
-21.75
-21.09
-19.72
-17.71
-15.22
-12.46
-9.57
-6.69
-3.91
-1.33
0.94
2.86
4.47
5.93
7.49
9.31
11.42
13.68
15.80
17.48
18.50
18.85
18.64
18.07
17.33
16.51
15.65
14.73
13.72
12.64
11.51
10.43
9.44
8.62
8.03
7.75
7.78
8.05
8.35
8.51
8.39
7.99
7.45
6.90
6.38
5.82
5.17
4.41
3.66
3.09
2.85
2.93
3.21
3.49
3.65
3.71
3.71
3.72
3.73
3.63
3.35
2.83
2.11
1.31
0.54
-0.13
-0.73
-1.31
-1.99
-2.76
-3.61
-4.41
-5.06
-5.47
-5.59
-5.36
-4.76
-3.78
-2.44
-0.90
0.65
1.99
2.97
3.59
3.96
4.19
4.38
4.51
4.50
4.27
3.85
3.34
2.86
2.48
2.20
1.96
1.70
1.40
1.03
0.58
-0.04
-0.94
-2.20
-3.81
-5.75
-7.95
-10.38
-13.02
-15.83
-18.69
-21.34
-23.51
-24.99
-25.72
-25.82
-25.46
-24.74
-23.63
-21.94
-19.46
-16.12
-12.03
-7.51
-2.93
1.38
5.25
8.56
11.28
13.30
14.52
14.88
14.44
13.47
12.35
11.41
10.87
10.67
10.58
10.32
9.69
8.65
7.33
5.92
4.55
3.32
2.25
1.36
0.64
0.11
-0.25
-0.49
-0.66
-0.75
-0.68
-0.31
0.49
1.70
3.18
4.72
6.12
7.34
8.46
9.69
11.15
12.88
14.70
16.37
17.61
18.29
18.46
18.32
18.16
18.24
18.70
19.50
20.35
20.85
20.49
18.84
15.64
10.96
5.18
-1.08
-7.09
-12.26
-16.24
-19.01
-20.76
-21.83
-22.49
-22.90
-23.07
-22.88
-22.21
-20.99
-19.31
-17.43
-15.69
-14.38
-13.66
-13.45
-13.56
-13.79
-14.02
-14.27
-14.53
-14.75
-14.73
-14.26
-13.22
-11.63
-9.74
-7.84
-6.16
-4.83
-3.86
-3.23
-2.84
-2.59
-2.33
-2.01
-1.63
-1.31
-1.14
-1.14
-1.21
-1.24
-1.14
-0.95
-0.74
-0.51
-0.13
0.60
1.79
3.37
5.08
6.56
7.60
8.19
8.51
8.80
9.16
9.56
9.88
10.00
9.86
9.43
8.76
7.93
7.04
6.15
5.25
4.23
2.98
1.48
-0.11
-1.50
-2.41
-2.71
-2.54
-2.13
-1.74
-1.46
-1.25
-1.12
-1.20
-1.76
-3.05
-5.06
-7.53
-10.01
-12.09
-13.61
-14.69
-15.59
-16.53
-17.58
-18.66
-19.71
-20.76
-21.87
-23.10
-24.38
-25.60
-26.76
-28.08
-29.99
-32.97
-37.22
-42.49
-48.11
-53.27
-57.39
-60.49
-63.20
-66.54
-71.45
-78.36
-86.89
-95.97
-104.27
-110.80
-115.51
-119.42
-124.36
-132.17
-143.72
-158.13
-172.63
-183.15
-185.45
-176.46
-155.21
-123.02
-83.15
-39.59
4.08
45.72
85.12
123.80
164.18
208.34
256.67
307.33
356.55
399.76
433.10
454.82
465.82
469.06
468.20
465.67
461.76
454.53
441.06
419.25
389.44
354.77
320.02
289.40
264.15
242.33
220.05
193.61
161.37
124.41
85.71
48.42
14.48
-16.81
-46.55
-74.66
-99.55
-119.37
-133.53
-143.48
-152.32
-163.36
-180.85
-206.16
-236.95
-268.31
-295.56
-316.24
-330.06
-337.84
-340.14
-340.01
-338.83
-335.64
-328.17
-315.38
-298.63
-280.92
-265.36
-254.10
-252.22
-262.04
-281.40
-304.63
-326.21
-343.73
-358.09
-372.16
-361.13
-311.85
-229.21
-133.31
-43.46
30.86
87.79
129.01
157.73
178.01
189.44
191.90
187.09
178.38
168.81
159.93
152.44
146.93
144.18
141.35
135.96
127.41
117.08
106.64
97.14
89.09
83.05
79.68
77.15
73.67
68.38
61.62
54.04
46.26
39.01
33.23
29.92
28.52
27.90
26.85
24.54
20.49
14.92
8.81
3.72
1.07
1.28
3.61
6.55
8.38
7.37
2.47
-6.79
-20.00
-35.27
-49.13
-57.22
-55.68
-42.50
-20.11
5.93
28.40
41.32
42.30
33.39
19.81
7.45
0.31
-0.85
2.19
6.57
10.12
12.22
13.53
15.03
17.03
18.94
19.32
17.32
13.12
8.14
4.27
2.97
4.47
7.90
11.48
13.45
12.93
10.14
6.17
2.59
0.77
1.31
3.91
7.42
10.36
11.56
10.59
7.86
4.56
2.12
1.66
3.53
6.99
10.56
12.67
12.42
9.75
5.65
1.70
-0.61
-0.12
3.66
10.98
21.60
34.28
46.15
53.05
50.87
37.26
14.19
-12.99
-37.59
-54.32
-61.49
-61.16
-57.37
-53.63
-50.87
-47.85
-42.97
-35.87
-27.88
-21.17
-16.98
-14.82
-12.64
-8.09
0.32
12.04
24.88
35.85
42.76
44.77
42.56
37.86
32.84
29.19
27.68
28.15
29.57
30.71
30.62
29.26
27.36
26.19
26.82
29.91
35.36
42.31
49.09
53.54
53.25
46.40
32.37
12.19
-11.40
-34.61
-53.70
-66.04
-70.36
-67.86
-60.73
-51.28
-41.29
-31.83
-23.39
-16.28
-10.78
-7.03
-5.01
-4.28
-3.87
-2.93
-1.04
1.80
5.06
8.04
10.23
11.46
12.09
12.70
13.85
15.78
18.50
21.67
24.91
27.87
30.41
32.61
34.59
36.39
37.69
38.17
37.38
34.92
30.62
24.57
17.11
8.76
0.40
-7.73
-15.24
-21.84
-27.32
-31.50
-34.28
-35.67
-36.13
-35.82
-35.28
-34.89
-34.90
-35.27
-35.68
-35.77
-35.27
-34.28
-33.14
-32.59
-33.11
-34.92
-37.69
-40.67
-42.98
-43.94
-43.41
-41.81
-40.27
-39.14
-38.44
-37.65
-35.79
-32.20
-26.73
-20.13
-13.93
-9.86
-9.27
-13.10
-21.72
-34.29
-49.82
-65.34
-76.45
-78.55
-68.82
-47.78
-19.82
8.43
30.66
43.29
46.61
43.68
38.24
32.74
27.83
22.92
17.48
11.84
6.96
3.89
2.97
3.68
5.10
6.45
7.49
8.68
10.73
14.10
18.90
24.62
30.54
36.02
40.72
44.66
48.02
50.87
53.09
54.48
54.88
54.54
54.14
54.52
56.26
59.32
62.91
65.88
67.26
66.54
64.15
61.18
58.88
58.34
60.38
65.17
71.98
78.74
81.72
76.81
61.11
34.68
1.21
-32.80
-60.59
-77.61
-82.01
-76.61
-66.08
-54.20
-42.68
-32.14
-22.21
-14.09
-10.00
-12.00
-20.66
-34.11
-48.75
-60.66
-67.40
-68.78
-66.90
-64.83
-65.63
-71.29
-81.70
-94.62
-106.00
-110.99
-105.23
-86.58
-55.99
-17.92
20.92
53.98
77.13
89.74
94.19
94.33
92.38
90.33
89.16
89.17
90.56
93.64
98.60
104.74
110.24
112.28
108.21
96.06
75.27
47.19
15.26
-15.41
-39.89
-55.33
-62.30
-64.41
-67.01
-75.12
-91.49
-115.48
-142.69
-167.16
-183.72
-189.54
-184.55
-171.38
-154.68
-139.81
-130.92
-128.22
-128.94
-128.72
-123.69
-111.58
-92.13
-66.80
-37.48
-5.02
33.00
79.55
135.17
196.24
255.27
302.97
331.14
335.70
309.88
257.52
193.50
136.51
97.74
76.62
65.95
58.82
52.31
47.16
46.76
52.53
62.19
70.90
74.06
69.65
58.44
42.83
24.98
6.92
-11.06
-30.68
-51.33
-73.01
-94.53
-113.76
-128.78
-138.78
-143.63
-144.36
-142.82
-140.66
-138.93
-137.48
-135.40
-132.16
-128.02
-123.55
-119.71
-117.81
-119.10
-124.44
-132.81
-140.78
-143.19
-134.85
-112.96
-79.10
-39.22
-1.57
26.52
41.72
45.36
41.77
35.58
29.67
24.62
19.89
15.12
10.93
8.61
9.17
12.31
16.77
20.75
22.57
21.76
18.99
15.66
13.25
12.58
13.55
15.23
16.42
16.09
13.89
10.21
5.85
1.73
-1.65
-4.34
-6.84
-9.68
-13.35
-18.01
-23.49
-29.40
-35.32
-41.06
-46.70
-52.64
-59.02
-66.03
-73.73
-81.93
-90.22
-98.04
-104.82
-110.16
-113.96
-115.98
-116.41
-115.59
-113.84
-111.09
-106.78
-99.74
-88.30
-73.95
-57.35
-39.35
-20.91
-2.85
14.59
31.80
49.68
69.11
90.62
114.53
140.43
167.48
194.82
221.91
248.54
274.64
300.23
325.84
353.21
384.42
420.59
460.19
497.92
525.29
533.11
515.02
470.60
406.45
333.63
263.65
204.79
159.88
126.88
101.07
77.48
53.10
27.69
1.69
-25.35
-54.80
-87.77
-123.20
-156.98
-183.91
-200.07
-204.66
-202.00
-199.05
-200.01
-203.02
-200.77
-185.16
-153.97
-112.95
-72.57
-44.88
-38.01
-51.97
-79.92
-112.95
-145.15
-177.16
-213.36
-256.00
-304.51
-354.53
-397.80
-425.71
-433.64
-415.53
-374.01
-330.33
-296.16
-269.95
-246.93
-220.99
-188.50
-150.60
-112.78
-83.02
-66.56
-60.96
-59.71
-55.54
-42.55
-18.62
13.84
49.67
82.73
109.39
131.12
150.96
171.07
192.12
212.84
230.58
242.82
247.70
245.23
237.81
227.69
216.29
205.08
196.22
192.92
199.21
218.40
251.54
296.23
345.35
388.32
414.32
415.80
390.61
342.37
278.82
209.21
141.81
81.80
30.91
-11.64
-47.74
-80.16
-112.28
-147.18
-186.52
-229.35
-271.87
-308.42
-333.46
-342.92
-336.28
-316.62
-288.64
-256.39
-221.75
-184.44
-142.99
-95.81
-41.25
20.20
84.73
145.62
194.37
223.25
227.85
208.83
166.82
110.07
51.56
3.33
-28.10
-43.48
-47.37
-44.03
-35.95
-24.38
-9.69
6.59
21.37
32.70
40.00
44.31
47.67
51.79
56.56
61.02
62.83
58.20
45.16
23.22
-6.29
-39.57
-72.64
-102.63
-127.61
-147.21
-166.55
-186.26
-205.32
-221.40
-231.49
-233.18
-225.28
-207.94
-176.65
-135.63
-90.28
-45.70
-5.11
30.43
60.87
86.67
108.20
125.37
136.41
140.28
135.75
121.78
97.86
64.85
26.21
-10.34
-34.99
-41.12
-26.90
2.77
38.22
69.22
88.86
96.17
95.09
91.36
88.99
90.41
96.07
106.73
122.96
143.67
165.49
182.97
190.49
184.86
167.63
144.77
124.18
112.20
111.08
119.21
132.60
146.94
158.91
166.67
169.24
165.68
157.02
143.87
127.45
109.62
92.37
77.26
64.85
54.73
45.92
37.34
28.20
18.70
9.81
2.77
-1.72
-3.92
-5.13
-7.19
-11.75
-19.79
-30.95
-43.77
-56.39
-67.55
-77.14
-86.37
-97.25
-111.71
-130.86
-154.44
-181.22
-209.57
-238.40
-267.66
-298.28
-331.87
-370.34
-415.67
-469.33
-531.27
-598.76
-665.57
-722.78
-761.07
-773.86
-759.81
-723.21
-672.05
-614.74
-557.18
-501.73
-448.01
-394.84
-341.82
-289.70
-239.64
-192.29
-147.46
-104.62
-63.79
-26.17
5.96
29.89
43.53
46.26
39.17
24.65
5.68
-15.06
-35.67
-55.17
-73.11
-89.13
-102.46
-111.90
-116.04
-113.68
-104.34
-88.37
-66.98
-41.79
-14.47
13.71
41.91
69.70
96.82
122.97
147.70
170.54
191.13
209.44
225.80
240.92
255.65
270.84
287.18
305.18
325.17
347.27
371.42
397.23
424.15
451.74
480.14
510.20
543.08
579.21
617.24
653.67
683.38
701.01
702.41
685.73
651.64
603.35
546.39
487.99
435.72
395.57
369.82
355.96
347.45
336.03
314.60
279.45
231.04
173.80
115.46
65.50
32.98
23.47
36.40
63.87
92.85
109.76
105.37
77.87
32.24
-22.61
-77.25
-124.10
-158.27
-177.50
-182.07
-174.74
-160.03
-142.93
-126.98
-112.88
-99.51
-85.27
-69.77
-54.34
-41.49
-34.00
-34.76
-47.06
-74.30
-119.45
-182.40
-257.65
-333.96
-397.13
-434.63
-439.82
-413.55
-361.85
-293.45
-216.61
-138.18
-64.87
-4.47
34.91
48.40
38.20
14.78
-8.20
-20.66
-21.05
-16.55
-18.34
-34.85
-66.67
-108.15
-146.07
-167.12
-165.67
-146.68
-120.74
-96.45
-76.68
-59.76
-42.99
-25.06
-7.59
5.96
12.84
12.72
8.19
3.04
0.66
2.93
9.71
18.72
26.81
31.60
32.49
31.06
29.70
30.49
34.52
41.67
50.27
58.25
64.06
66.96
67.64
67.36
66.53
65.11
62.60
57.86
49.94
38.39
23.33
6.06
-12.33
-30.87
-48.83
-64.38
-77.78
-89.46
-99.75
-109.11
-117.01
-123.54
-128.90
-133.21
-136.70
-139.92
-143.08
-145.98
-150.26
-153.22
-152.95
-147.96
-137.08
-120.13
-97.97
-71.90
-41.69
-10.45
20.37
49.64
76.93
101.89
123.70
141.22
153.36
159.48
159.29
154.64
146.41
135.50
122.36
106.61
87.32
63.82
35.98
4.39
-29.51
-64.30
-97.49
-125.23
-142.71
-145.67
-132.46
-105.64
-71.86
-39.37
-15.24
-2.54
-0.01
-3.69
-9.52
-15.15
-20.38
-26.02
-32.45
-39.09
-44.59
-47.96
-49.38
-50.18
-52.01
-56.27
-63.35
-72.46
-82.11
-90.65
-96.96
-100.58
-101.69
-100.82
-97.54
-91.21
-80.90
-65.78
-45.59
-20.97
6.56
34.40
60.24
82.28
99.42
111.36
118.48
121.57
121.48
119.45
115.65
110.55
104.61
98.22
91.74
85.51
79.74
74.52
69.78
65.30
61.06
57.09
53.36
49.84
46.57
43.56
40.78
38.21
35.76
33.54
31.60
30.01
28.78
28.02
27.81
28.14
28.91
29.93
31.00
31.81
32.35
31.91
30.12
26.75
21.73
15.13
7.24
-1.55
-10.71
-19.74
-28.19
-35.63
-41.75
-46.42
-49.72
-51.79
-52.85
-53.14
-52.90
-52.41
-51.73
-50.91
-49.96
-48.90
-47.75
-46.52
-45.27
-44.05
-43.01
-42.08
-41.24
-40.50
-39.91
-39.56
-39.52
-39.97
-41.06
-42.97
-45.53
-48.62
-52.13
-56.03
-60.29
-64.95
-70.11
-75.89
-82.43
-89.37
-96.41
-103.36
-110.08
-116.54
-122.84
-129.17
-135.72
-142.68
-149.43
-155.41
-160.12
-163.09
-164.01
-162.55
-158.14
-149.55
-139.54
-128.53
-116.34
-102.60
-87.13
-70.13
-52.23
-34.32
-17.26
-1.54
13.54
28.99
45.81
64.61
85.36
107.43
129.80
151.50
171.97
191.71
211.57
232.62
255.93
282.36
312.08
343.95
374.89
400.04
414.11
412.66
393.99
359.85
315.05
265.72
217.31
173.26
134.75
101.67
73.53
50.12
31.53
17.71
8.03
1.24
-4.15
-9.38
-15.01
-20.89
-26.39
-30.95
-34.35
-36.89
-39.26
-42.08
-45.65
-49.71
-53.64
-56.63
-58.19
-58.21
-57.05
-55.35
-53.61
-52.08
-50.65
-48.99
-46.71
-43.63
-39.82
-35.61
-31.49
-27.90
-25.09
-23.12
-21.85
-21.04
-20.48
-20.02
-19.56
-19.03
-18.33
-17.36
-16.06
-14.48
-12.73
-10.94
-9.24
-7.65
-6.15
-4.68
-3.27
-2.02
-1.08
-0.56
-0.45
-0.63
-0.89
-1.07
-1.02
-0.70
-0.14
0.56
1.26
1.80
2.02
1.79
1.07
-0.12
-1.69
-3.47
-5.38
-7.33
-9.28
-11.25
-13.28
-15.48
-17.99
-20.93
-24.27
-27.89
-31.57
-34.96
-37.77
-39.70
-40.54
-40.11
-38.32
-35.14
-30.62
-24.93
-18.32
-11.17
-3.88
3.04
9.09
13.79
16.81
18.10
17.87
16.54
14.58
12.41
10.28
8.22
6.10
3.75
1.11
-1.77
-4.69
-7.54
-10.27
-13.04
-16.10
-19.61
-23.49
-27.30
-30.38
-31.99
-31.54
-28.69
-23.37
-15.77
-6.36
4.10
14.61
24.07
31.53
36.44
38.75
38.85
37.44
35.21
32.69
30.17
27.69
25.13
22.27
18.96
15.19
11.15
7.18
3.64
0.76
-1.45
-3.17
-4.72
-6.40
-8.36
-10.55
-12.77
-14.78
-16.42
-17.69
-18.72
-19.64
-20.52
-21.25
-21.68
-21.71
-21.39
-20.84
-20.09
-18.91
-16.80
-13.24
-8.00
-1.41
5.66
12.20
17.36
20.86
22.87
23.81
23.95
23.29
21.63
18.83
15.13
11.14
7.71
5.57
5.04
5.79
7.05
7.86
7.50
5.84
3.35
0.83
-0.97
-1.73
-1.65
-1.31
-1.29
-1.90
-3.05
-4.44
-5.76
-6.91
-7.96
-8.97
-9.85
-10.27
-9.89
-8.54
-6.46
-4.15
-2.25
-1.21
-1.12
-1.72
-2.60
-3.43
-4.11
-4.72
-5.40
-6.18
-7.01
-7.69
-8.09
-8.19
-8.08
-7.89
-7.76
-7.68
-7.59
-7.42
-7.13
-6.77
-6.41
-6.13
-5.94
-5.87
-5.86
-5.89
-5.92
-5.87
-5.66
-5.18
-4.32
-3.00
-1.28
0.70
2.69
4.39
5.60
6.22
6.31
6.03
5.50
4.77
3.80
2.60
1.24
-0.09
-1.14
-1.72
-1.81
-1.55
-1.22
-1.13
-1.46
-2.25
-3.35
-4.56
-5.66
-6.54
-7.21
-7.80
-8.47
-9.29
-10.24
-11.16
-11.77
-11.84
-11.18
-9.80
-7.84
-5.57
-3.22
-1.02
0.92
2.60
3.98
5.04
5.72
5.98
5.89
5.61
5.36
5.28
5.38
5.48
5.32
4.74
3.71
2.37
0.98
-0.28
-1.33
-2.23
-3.08
-3.98
-4.96
-5.96
-6.90
-7.73
-8.38
-8.80
-8.93
-8.64
-7.76
-6.19
-3.91
-1.12
1.85
4.59
6.80
8.35
9.31
9.81
10.00
9.95
9.64
9.06
8.22
7.23
6.19
5.21
4.37
3.69
3.15
2.69
2.22
1.60
0.74
-0.43
-1.85
-3.37
-4.76
-5.88
-6.65
-7.19
-7.73
-8.48
-9.55
-10.84
-12.08
-12.92
-13.05
-12.30
-10.70
-8.43
-5.74
-2.90
-0.18
2.13
3.81
4.71
4.80
4.22
3.13
1.73
0.09
-1.73
-3.68
-5.65
-7.45
-8.90
-9.90
-10.50
-10.82
-11.03
-11.19
-11.29
-11.25
-11.00
-10.50
-9.74
-8.81
-7.81
-6.92
-6.27
-5.96
-5.92
-5.94
-5.74
-5.05
-3.79
-1.98
0.17
2.51
4.93
7.45
10.08
12.78
15.39
17.63
19.22
19.98
19.89
19.03
17.59
15.71
13.49
11.03
8.35
5.53
2.68
-0.02
-2.40
-4.25
-5.45
-5.95
-5.86
-5.46
-5.09
-5.08
-5.62
-6.65
-7.97
-9.27
-10.31
-10.92
-11.08
-10.81
-10.08
-8.85
-7.04
-4.65
-1.81
1.19
4.01
6.34
7.97
8.84
9.01
8.53
7.50
6.01
4.22
2.37
0.72
-0.49
-1.17
-1.35
-1.25
-1.12
-1.21
-1.65
-2.42
-3.41
-4.45
-5.46
-6.43
-7.39
-8.37
-9.35
-10.31
-11.18
-11.95
-12.59
-13.02
-13.07
-12.48
-11.03
-8.67
-5.63
-2.29
0.92
3.70
5.83
7.29
8.08
8.27
7.85
6.75
4.90
2.22
-1.29
-5.59
-10.50
-15.75
-20.97
-25.78
-29.82
-32.75
-34.25
-34.03
-31.90
-27.82
-22.07
-15.16
-7.76
-0.63
5.56
10.36
13.56
15.17
15.46
14.88
13.91
13.12
12.92
13.51
14.79
16.49
18.23
19.72
20.77
21.33
21.41
21.06
20.30
19.14
17.66
16.02
14.43
13.01
11.88
10.99
10.28
9.66
9.00
8.25
7.33
6.26
5.06
3.81
2.59
1.39
0.15
-1.26
-2.88
-4.71
-6.58
-8.25
-9.48
-10.09
-9.99
-9.12
-7.50
-5.21
-2.42
0.59
3.47
5.91
7.69
8.76
9.16
9.04
8.53
7.74
6.81
5.82
4.90
4.13
3.51
3.01
2.53
2.00
1.40
0.73
0.01
-0.76
-1.56
-2.36
-3.11
-3.83
-4.55
-5.41
-6.53
-7.96
-9.61
-11.21
-12.38
-12.74
-12.05
-10.24
-7.48
-4.04
-0.27
3.48
6.93
9.81
11.93
13.18
13.54
13.13
12.15
10.86
9.54
8.38
7.43
6.67
5.99
5.27
4.43
3.45
2.39
1.32
0.31
-0.66
-1.65
-2.75
-4.00
-5.37
-6.77
-8.06
-9.16
-10.07
-10.84
-11.47
-11.89
-11.89
-11.22
-9.68
-7.23
-4.08
-0.58
2.84
5.81
8.10
9.63
10.45
10.67
10.41
9.77
8.83
7.70
6.51
5.44
4.64
4.19
4.04
4.05
4.02
3.79
3.30
2.55
1.61
0.53
-0.66
-1.98
-3.39
-4.86
-6.33
-7.76
-9.16
-10.49
-11.70
-12.63
-13.05
-12.70
-11.41
-9.18
-6.17
-2.74
0.71
3.80
6.27
8.00
9.01
9.40
9.32
8.93
8.39
7.83
7.37
7.08
6.97
7.00
7.05
6.99
6.75
6.29
5.66
4.94
4.23
3.62
3.09
2.62
2.08
1.39
0.48
-0.64
-1.91
-3.24
-4.61
-6.01
-7.42
-8.77
-9.88
-10.49
-10.32
-9.16
-7.00
-4.06
-0.71
2.59
5.45
7.57
8.85
9.29
9.04
8.24
7.10
5.80
4.56
3.53
2.85
2.60
2.73
3.12
3.59
3.95
4.02
3.67
2.91
1.80
0.48
-0.90
-2.28
-3.61
-4.98
-6.41
-7.92
-9.42
-10.79
-11.90
-12.74
-13.37
-13.90
-14.46
-15.01
-15.41
-15.41
-14.77
-13.33
-11.11
-8.28
-5.09
-1.83
1.25
3.96
6.16
7.74
8.68
9.00
8.80
8.22
7.40
6.50
5.69
5.13
4.91
5.05
5.49
6.00
6.39
6.47
6.22
5.72
5.21
4.90
4.94
5.33
5.95
6.63
7.17
7.41
7.18
6.44
5.21
3.70
2.28
1.35
1.17
1.74
2.77
3.74
4.08
3.30
1.08
-2.57
-7.26
-12.27
-16.63
-19.41
-20.06
-18.62
-15.65
-11.97
-8.29
-4.93
-1.82
1.26
4.41
7.41
9.86
11.41
11.99
11.88
11.52
11.35
11.48
11.70
11.60
10.81
9.26
7.25
5.25
3.74
2.86
2.37
1.76
0.40
-2.05
-5.54
-9.66
-13.74
-17.19
-19.68
-21.16
-21.79
-21.74
-21.06
-19.71
-17.59
-14.64
-10.91
-6.61
-2.05
2.38
6.29
9.32
11.20
11.91
11.65
10.84
9.93
9.28
8.96
8.89
8.90
8.84
8.75
8.75
8.96
9.42
9.98
10.39
10.39
9.87
8.92
7.78
6.74
6.09
6.03
6.62
7.79
9.27
10.56
10.98
9.91
7.04
2.66
-2.42
-7.07
-10.31
-11.68
-11.32
-9.85
-7.94
-6.07
-4.36
-2.75
-1.11
0.56
2.13
3.42
4.26
4.52
4.06
2.84
0.92
-1.44
-3.78
-5.64
-6.73
-7.00
-6.68
-6.08
-5.44
-4.84
-4.24
-3.64
-3.17
-3.04
-3.47
-4.49
-5.90
-7.36
-8.54
-9.32
-9.76
-10.09
-10.48
-11.04
-11.68
-12.26
-12.59
-12.52
-11.96
-10.82
-9.06
-6.67
-3.69
-0.25
3.45
7.18
10.72
13.87
16.51
18.56
19.96
20.68
20.74
20.18
19.16
17.84
16.38
14.81
13.06
10.99
8.48
5.59
2.58
-0.21
-2.47
-4.07
-5.10
-5.81
-6.48
-7.28
-8.28
-9.39
-10.42
-11.25
-11.82
-12.16
-12.37
-12.58
-12.85
-13.16
-13.43
-13.51
-13.24
-12.47
-11.03
-8.85
-5.93
-2.44
1.26
4.77
7.73
9.90
11.27
12.01
12.38
12.61
12.87
13.17
13.40
13.36
12.90
11.92
10.52
8.87
7.20
5.73
4.58
3.86
3.66
4.14
5.36
7.22
9.29
10.93
11.48
10.58
8.32
5.20
1.87
-1.21
-3.84
-6.03
-7.81
-9.09
-9.71
-9.54
-8.61
-7.17
-5.50
-3.79
-2.05
-0.23
1.68
3.57
5.25
6.62
7.63
8.38
8.93
9.23
9.11
8.33
6.72
4.30
1.30
-1.97
-5.16
-8.03
-10.55
-12.84
-15.05
-17.23
-19.26
-20.92
-21.99
-22.43
-22.41
-22.19
-22.01
-21.93
-21.84
-21.50
-20.78
-19.69
-18.37
-16.98
-15.53
-13.92
-11.95
-9.52
-6.67
-3.60
-0.56
2.25
4.75
6.93
8.88
10.69
12.39
13.98
15.38
16.51
17.24
17.49
17.21
16.43
15.27
13.88
12.41
11.00
9.74
8.66
7.76
6.99
6.28
5.52
4.57
3.32
1.68
-0.31
-2.52
-4.78
-6.96
-9.01
-10.91
-12.76
-14.56
-16.28
-17.79
-18.96
-19.58
-19.44
-18.31
-16.03
-12.65
-8.47
-4.01
0.16
3.56
6.08
7.81
9.05
10.05
10.90
11.59
12.04
12.21
12.14
11.83
11.30
10.48
9.34
7.92
6.35
4.83
3.56
2.65
2.15
1.96
1.98
2.07
2.13
2.08
1.90
1.55
1.02
0.31
-0.60
-1.67
-2.87
-4.10
-5.22
-6.01
-6.30
-5.96
-5.01
-3.60
-1.97
-0.38
0.99
2.06
2.88
3.47
3.88
4.05
3.96
3.62
3.12
2.63
2.32
2.29
2.53
2.95
3.42
3.80
4.00
3.98
3.79
3.45
2.99
2.43
1.71
0.77
-0.41
-1.81
-3.35
-4.90
-6.37
-7.72
-8.88
-9.78
-10.29
-10.24
-9.52
-8.11
-6.18
-3.99
-1.83
0.12
1.75
3.06
4.04
4.69
4.95
4.80
4.25
3.41
2.43
1.46
0.63
-0.01
-0.41
-0.58
-0.57
-0.48
-0.41
-0.45
-0.65
-0.96
-1.31
-1.68
-2.11
-2.71
-3.57
-4.72
-6.08
-7.54
-9.01
-10.40
-11.68
-12.73
-13.38
-13.40
-12.59
-10.92
-8.61
-5.98
-3.45
-1.30
0.37
1.61
2.57
3.37
4.07
4.64
5.05
5.28
5.36
5.35
5.27
5.16
5.03
4.90
4.78
4.62
4.29
3.66
2.68
1.42
0.09
-1.08
-2.01
-2.79
-3.66
-4.81
-6.28
-7.88
-9.36
-10.50
-11.27
-11.72
-11.90
-11.80
-11.29
-10.23
-8.61
-6.56
-4.32
-2.14
-0.15
1.64
3.28
4.81
6.18
7.23
7.82
7.88
7.47
6.77
5.99
5.32
4.82
4.48
4.20
3.88
3.50
3.02
2.44
1.73
0.83
-0.24
-1.46
-2.76
-4.05
-5.33
-6.64
-8.02
-9.48
-10.97
-12.31
-13.35
-13.93
-13.95
-13.35
-12.12
-10.31
-8.04
-5.51
-2.92
-0.46
1.69
3.47
4.86
5.86
6.51
6.88
7.03
7.02
6.88
6.62
6.28
5.94
5.73
5.78
6.14
6.75
7.41
7.83
7.82
7.28
6.27
4.94
3.48
2.01
0.55
-0.88
-2.30
-3.67
-4.97
-6.21
-7.46
-8.74
-10.02
-11.07
-11.58
-11.22
-9.84
-7.52
-4.63
-1.65
0.99
3.03
4.41
5.27
5.85
6.38
7.08
8.04
9.20
10.40
11.39
12.00
12.16
11.94
11.58
11.26
11.11
11.14
11.22
11.20
10.92
10.31
9.33
8.06
6.56
4.92
3.19
1.39
-0.41
-2.16
-3.81
-5.37
-6.91
-8.52
-10.20
-11.82
-13.06
-13.57
-13.05
-11.46
-9.01
-6.15
-3.37
-1.05
0.66
1.83
2.64
3.26
3.79
4.16
4.27
4.04
3.53
2.94
2.55
2.56
2.95
3.57
4.12
4.41
4.39
4.16
3.89
3.68
3.47
3.10
2.45
1.49
0.34
-0.80
-1.82
-2.74
-3.72
-4.92
-6.42
-8.15
-9.85
-11.22
-11.95
-11.84
-10.80
-8.93
-6.45
-3.67
-0.93
1.49
3.41
4.80
5.69
6.17
6.38
6.43
6.45
6.54
6.73
7.00
7.26
7.43
7.43
7.26
6.94
6.49
5.96
5.33
4.57
3.66
2.61
1.43
0.17
-1.13
-2.44
-3.73
-5.01
-6.28
-7.49
-8.54
-9.26
-9.52
-9.21
-8.37
-7.10
-5.56
-3.89
-2.18
-0.45
1.27
2.89
4.27
5.23
5.65
5.46
4.77
3.74
2.58
1.44
0.47
-0.26
-0.67
-0.71
-0.40
0.20
0.88
1.46
1.78
1.88
1.90
2.04
2.37
2.71
2.66
1.75
-0.29
-3.43
-7.26
-11.13
-14.45
-16.83
-18.20
-18.74
-18.65
-18.04
-16.84
-14.96
-12.36
-9.22
-5.91
-2.79
-0.14
1.97
3.65
5.05
6.21
7.06
7.46
7.33
6.73
5.94
5.28
5.01
5.20
5.69
6.20
6.44
6.23
5.60
4.70
3.74
2.87
2.11
1.43
0.74
-0.03
-0.88
-1.82
-2.83
-3.89
-5.03
-6.24
-7.44
-8.51
-9.22
-9.33
-8.65
-7.14
-4.91
-2.23
0.55
3.11
5.20
6.73
7.76
8.41
8.84
9.17
9.42
9.55
9.48
9.16
8.65
8.02
7.35
6.68
6.03
5.42
4.87
4.45
4.19
4.11
4.15
4.22
4.21
4.04
3.69
3.15
2.41
1.44
0.19
-1.45
-3.49
-5.91
-8.52
-11.03
-13.05
-14.25
-14.42
-13.56
-11.83
-9.49
-6.77
-3.90
-1.07
1.47
3.49
4.81
5.36
5.25
4.74
4.15
3.76
3.71
4.03
4.63
5.40
6.19
6.86
7.27
7.36
7.11
6.61
5.98
5.31
4.57
3.67
2.53
1.12
-0.46
-2.05
-3.48
-4.65
-5.58
-6.37
-7.13
-7.94
-8.77
-9.49
-9.89
-9.82
-9.14
-7.85
-6.03
-3.86
-1.53
0.75
2.80
4.44
5.61
6.26
6.51
6.50
6.41
6.41
6.55
6.81
7.13
7.41
7.61
7.71
7.72
7.71
7.71
7.70
7.65
7.42
6.90
6.02
4.82
3.40
1.91
0.48
-0.79
-1.89
-2.85
-3.72
-4.60
-5.57
-6.67
-7.85
-8.91
-9.57
-9.53
-8.61
-6.86
-4.57
-2.14
0.05
1.78
3.03
3.91
4.51
4.87
4.99
4.85
4.51
4.10
3.78
3.67
3.78
4.00
4.21
4.25
4.07
3.71
3.26
2.83
2.47
2.15
1.80
1.30
0.56
-0.49
-1.83
-3.41
-5.13
-6.85
-8.41
-9.72
-10.76
-11.60
-12.34
-13.01
-13.50
-13.60
-13.04
-11.69
-9.59
-6.96
-4.14
-1.43
0.97
2.94
4.44
5.49
6.13
6.42
6.51
6.55
6.66
6.91
7.26
7.67
8.00
8.18
8.15
7.95
7.67
7.43
7.36
7.44
7.56
7.54
7.14
6.25
4.92
3.28
1.55
-0.13
-1.72
-3.22
-4.70
-6.19
-7.71
-9.18
-10.49
-11.45
-11.86
-11.54
-10.38
-8.46
-6.01
-3.36
-0.85
1.33
3.11
4.55
5.71
6.64
7.34
7.78
7.98
8.02
7.97
7.90
7.77
7.54
7.17
6.66
6.09
5.52
5.03
4.55
4.05
3.44
2.68
1.80
0.81
-0.28
-1.45
-2.73
-4.06
-5.39
-6.67
-7.87
-9.02
-10.16
-11.31
-12.37
-13.22
-13.65
-13.52
-12.73
-11.33
-9.43
-7.25
-4.98
-2.81
-0.84
0.87
2.29
3.41
4.20
4.66
4.82
4.76
4.62
4.52
4.54
4.66
4.80
4.84
4.72
4.44
4.06
3.65
3.21
2.73
2.15
1.40
0.48
-0.61
-1.85
-3.25
-4.80
-6.49
-8.20
-9.83
-11.27
-12.49
-13.52
-14.40
-15.12
-15.60
-15.70
-15.26
-14.19
-12.46
-10.16
-7.44
-4.52
-1.66
0.87
2.88
4.21
4.88
5.00
4.77
4.42
4.12
3.95
3.87
3.80
3.62
3.24
2.72
2.19
1.85
1.86
2.26
2.92
3.60
4.05
4.10
3.77
3.22
2.68
2.34
2.35
2.70
3.32
4.10
4.93
5.72
6.40
6.88
7.12
7.10
6.89
6.66
6.60
6.86
7.53
8.53
9.72
10.86
11.75
12.20
12.02
11.05
9.18
6.46
3.17
-0.20
-3.08
-4.99
-5.72
-5.42
-4.49
-3.45
-2.72
-2.50
-2.82
-3.57
-4.62
-5.84
-7.16
-8.50
-9.76
-10.83
-11.56
-11.87
-11.76
-11.36
-10.88
-10.59
-10.67
-11.14
-11.78
-12.18
-11.90
-10.67
-8.54
-5.83
-3.03
-0.53
1.41
2.83
3.87
4.68
5.35
5.83
6.05
5.95
5.58
5.05
4.49
3.97
3.51
3.03
2.44
1.67
0.76
-0.22
-1.16
-1.95
-2.57
-3.04
-3.41
-3.71
-3.98
-4.19
-4.32
-4.32
-4.17
-3.81
-3.20
-2.29
-1.10
0.25
1.57
2.62
3.21
3.27
2.84
2.12
1.37
0.86
0.76
1.10
1.82
2.74
3.61
4.14
4.09
3.36
2.10
0.62
-0.66
-1.46
-1.72
-1.65
-1.55
-1.65
-1.97
-2.33
-2.44
-2.15
-1.49
-0.62
0.27
1.02
1.60
2.03
2.30
2.40
2.26
1.81
1.01
-0.13
-1.48
-2.89
-4.13
-4.95
-5.19
-4.79
-3.79
-2.33
-0.55
1.43
3.50
5.58
7.59
9.39
10.83
11.78
12.16
11.96
11.25
10.19
8.96
7.73
6.67
5.86
5.34
5.04
4.83
4.58
4.17
3.56
2.80
2.00
1.29
0.70
0.15
-0.47
-1.30
-2.36
-3.58
-4.83
-6.00
-7.06
-8.09
-9.20
-10.44
-11.75
-12.92
-13.67
-13.72
-12.92
-11.31
-9.10
-6.57
-4.01
-1.63
0.46
2.25
3.77
5.00
5.91
6.40
6.46
6.10
5.45
4.68
3.98
3.46
3.17
3.06
3.05
3.08
3.09
3.10
3.08
3.02
2.82
2.40
1.71
0.79
-0.24
-1.25
-2.11
-2.79
-3.36
-3.95
-4.65
-5.52
-6.53
-7.56
-8.47
-9.08
-9.21
-8.74
-7.57
-5.78
-3.52
-1.05
1.35
3.47
5.20
6.51
7.44
8.02
8.28
8.24
7.93
7.43
6.80
6.15
5.55
5.11
4.89
4.89
5.01
5.08
4.94
4.44
3.54
2.35
1.01
-0.33
-1.57
-2.71
-3.81
-4.92
-6.12
-7.34
-8.51
-9.53
-10.30
-10.83
-11.11
-11.18
-10.96
-10.34
-9.17
-7.38
-5.07
-2.49
-0.02
2.02
3.44
4.27
4.65
4.79
4.79
4.65
4.30
3.70
2.93
2.21
1.77
1.76
2.17
2.82
3.45
3.85
3.91
3.67
3.23
2.70
2.09
1.40
0.56
-0.48
-1.70
-3.02
-4.33
-5.51
-6.50
-7.33
-8.07
-8.77
-9.43
-9.85
-9.77
-8.95
-7.29
-4.97
-2.36
0.13
2.16
3.63
4.61
5.30
5.87
6.42
6.88
7.14
7.13
6.85
6.45
6.10
5.94
5.99
6.13
6.18
6.02
5.64
5.16
4.71
4.38
4.14
3.87
3.40
2.59
1.44
0.01
-1.56
-3.12
-4.59
-5.97
-7.33
-8.73
-10.07
-11.11
-11.55
-11.13
-9.80
-7.76
-5.37
-3.00
-0.86
0.99
2.63
4.09
5.33
6.26
6.79
6.94
6.82
6.59
6.37
6.17
5.93
5.56
5.01
4.31
3.56
2.91
2.46
2.22
2.09
1.90
1.52
0.84
-0.10
-1.20
-2.33
-3.40
-4.38
-5.27
-6.15
-7.04
-7.97
-8.90
-9.69
-10.18
-10.16
-9.51
-8.25
-6.53
-4.59
-2.63
-0.75
1.05
2.75
4.28
5.46
6.14
6.24
5.86
5.25
4.68
4.32
4.18
4.18
4.21
4.23
4.25
4.28
4.29
4.18
3.86
3.25
2.39
1.37
0.30
-0.74
-1.72
-2.68
-3.66
-4.70
-5.83
-7.04
-8.25
-9.35
-10.08
-10.24
-9.65
-8.35
-6.53
-4.46
-2.42
-0.55
1.12
2.61
3.88
4.81
5.27
5.21
4.78
4.18
3.72
3.52
3.56
3.70
3.77
3.69
3.44
3.12
2.75
2.32
1.76
1.04
0.16
-0.76
-1.63
-2.40
-3.13
-3.93
-4.90
-6.10
-7.49
-8.87
-9.98
-10.50
-10.22
-9.02
-7.02
-4.51
-1.87
0.54
2.51
3.97
4.99
5.66
6.05
6.14
5.94
5.52
5.04
4.70
4.69
5.04
5.62
6.17
6.43
6.25
5.62
4.73
3.76
2.85
1.96
0.97
-0.22
-1.66
-3.24
-4.85
-6.38
-7.78
-9.03
-10.07
-10.70
-10.67
-9.80
-8.11
-5.84
-3.38
-1.16
0.61
1.82
2.53
2.86
2.87
2.62
2.04
1.04
-0.54
-2.83
-5.94
-9.87
-14.45
-19.32
-24.00
-27.98
-30.82
-32.17
-31.81
-29.66
-25.79
-20.45
-14.08
-7.26
-0.69
4.98
9.30
12.07
13.36
13.49
12.94
12.16
11.60
11.57
12.18
13.38
14.96
16.66
18.17
19.33
19.97
20.16
20.00
19.65
19.20
18.69
18.11
17.45
16.71
15.88
15.01
14.09
13.14
12.17
11.20
10.29
9.47
8.75
8.11
7.48
6.82
6.04
5.06
3.82
2.27
0.41
-1.66
-3.78
-5.76
-7.45
-8.74
-9.54
-9.77
-9.31
-8.07
-6.06
-3.45
-0.60
2.13
4.40
6.15
7.48
8.59
9.63
10.60
11.37
11.83
11.95
11.80
11.49
11.06
10.46
9.57
8.37
6.94
5.51
4.33
3.55
3.17
3.03
2.90
2.59
2.02
1.21
0.24
-0.78
-1.83
-2.89
-4.02
-5.23
-6.50
-7.81
-9.14
-10.47
-11.80
-13.06
-14.08
-14.66
-14.57
-13.70
-12.08
-9.86
-7.29
-4.62
-2.03
0.37
2.49
4.33
5.82
6.93
7.65
8.01
8.13
8.12
8.13
8.22
8.38
8.55
8.61
8.49
8.20
7.79
7.36
7.05
6.94
7.02
7.18
7.20
6.88
6.06
4.73
3.03
1.17
-0.59
-2.11
-3.33
-4.32
-5.19
-6.05
-6.98
-7.98
-8.95
-9.78
-10.29
-10.30
-9.69
-8.46
-6.70
-4.61
-2.43
-0.36
1.47
3.00
4.24
5.20
5.88
6.32
6.55
6.66
6.73
6.84
7.04
7.36
7.76
8.19
8.53
8.63
8.41
7.88
7.21
6.55
6.04
5.66
5.27
4.70
3.83
2.68
1.35
-0.01
-1.31
-2.50
-3.56
-4.49
-5.28
-5.98
-6.68
-7.52
-8.56
-9.76
-10.93
-11.84
-12.24
-12.00
-11.12
-9.66
-7.80
-5.73
-3.62
-1.64
0.11
1.62
2.91
4.07
5.11
6.00
6.64
6.93
6.85
6.49
6.04
5.73
5.66
5.83
6.07
6.16
5.95
5.43
4.72
4.01
3.39
2.85
2.26
1.50
0.51
-0.62
-1.79
-2.90
-3.92
-4.89
-5.87
-6.86
-7.81
-8.67
-9.41
-10.09
-10.74
-11.32
-11.69
-11.64
-11.00
-9.75
-8.04
-6.12
-4.24
-2.59
-1.23
-0.10
0.86
1.70
2.38
2.84
3.02
2.96
2.76
2.54
2.41
2.36
2.31
2.12
1.72
1.12
0.46
-0.10
-0.40
-0.43
-0.30
-0.23
-0.43
-1.03
-2.01
-3.27
-4.64
-6.01
-7.31
-8.56
-9.74
-10.87
-11.92
-12.85
-13.60
-14.10
-14.21
-13.77
-12.64
-10.82
-8.44
-5.82
-3.31
-1.23
0.29
1.25
1.77
2.00
2.07
2.09
2.14
2.30
2.58
2.92
3.19
3.24
2.98
2.41
1.71
1.19
1.23
2.07
3.75
6.04
8.44
10.39
11.41
11.29
10.17
8.41
6.51
4.86
3.70
3.06
2.80
2.76
2.73
2.58
2.24
1.77
1.30
1.09
1.34
2.18
3.53
5.13
6.63
7.68
8.07
7.82
7.10
6.16
5.18
4.27
3.40
2.53
1.72
1.06
0.69
0.59
0.54
0.11
-1.14
-3.49
-6.82
-10.70
-14.50
-17.71
-20.11
-21.79
-22.95
-23.77
-24.24
-24.28
-23.84
-23.02
-22.07
-21.26
-20.68
-20.22
-19.56
-18.38
-16.50
-13.98
-11.11
-8.24
-5.72
-3.79
-2.58
-2.07
-2.15
-2.59
-3.18
-3.71
-4.09
-4.38
-4.70
-5.19
-5.89
-6.75
-7.57
-8.17
-8.46
-8.46
-8.35
-8.32
-8.52
-8.94
-9.39
-9.53
-8.97
-7.37
-4.57
-0.64
4.10
9.03
13.39
16.40
17.57
16.85
14.74
12.13
10.01
9.08
9.55
11.10
13.07
14.72
15.52
15.26
14.08
12.33
10.37
8.50
6.87
5.53
4.50
3.82
3.53
3.61
3.91
4.17
4.06
3.38
2.12
0.46
-1.34
-3.09
-4.72
-6.25
-7.72
-9.00
-9.91
-10.18
-9.67
-8.35
-6.27
-3.54
-0.27
3.40
7.23
10.86
13.84
15.83
16.74
16.72
16.07
15.05
13.77
12.26
10.54
8.69
6.92
5.43
4.40
3.95
4.17
5.14
6.87
9.21
11.79
14.08
15.58
15.96
15.18
13.44
11.04
8.29
5.45
2.65
-0.00
-2.53
-5.00
-7.50
-10.05
-12.55
-14.72
-16.26
-16.89
-16.46
-15.03
-12.80
-10.03
-7.11
-4.39
-2.19
-0.71
0.02
0.17
-0.00
-0.27
-0.51
-0.73
-1.01
-1.38
-1.78
-2.09
-2.20
-2.10
-1.86
-1.61
-1.47
-1.47
-1.56
-1.60
-1.48
-1.20
-0.85
-0.61
-0.70
-1.23
-2.16
-3.33
-4.51
-5.51
-6.27
-6.81
-7.20
-7.49
-7.64
-7.59
-7.23
-6.53
-5.45
-4.02
-2.26
-0.31
1.64
3.35
4.56
5.12
5.07
4.60
3.96
3.35
2.80
2.22
1.49
0.52
-0.64
-1.87
-2.99
-3.82
-4.09
-3.58
-2.12
0.24
3.14
6.01
8.24
9.34
9.13
7.77
5.56
2.93
0.29
-1.99
-3.62
-4.52
-4.79
-4.76
-4.76
-5.00
-5.42
-5.76
-5.71
-5.15
-4.21
-3.18
-2.31
-1.70
-1.29
-0.91
-0.53
-0.20
-0.14
-0.50
-1.34
-2.52
-3.73
-4.62
-4.92
-4.51
-3.46
-1.98
-0.26
1.54
3.33
5.04
6.64
8.04
9.10
9.76
10.00
9.90
9.61
9.22
8.81
8.34
7.75
6.96
5.93
4.61
2.97
0.99
-1.29
-3.70
-5.94
-7.66
-8.52
-8.30
-7.00
-4.79
-2.01
0.95
3.76
6.18
8.09
9.49
10.47
11.08
11.34
11.21
10.65
9.70
8.55
7.44
6.62
6.22
6.19
6.31
6.32
5.99
5.25
4.18
2.93
1.74
0.75
0.01
-0.56
-1.12
-1.84
-2.83
-4.11
-5.61
-7.22
-8.80
-10.25
-11.45
-12.24
-12.45
-11.97
-10.81
-9.19
-7.50
-6.09
-5.17
-4.71
-4.51
-4.30
-3.94
-3.42
-2.85
-2.33
-1.89
-1.52
-1.21
-0.95
-0.78
-0.74
-0.80
-0.88
-0.92
-0.88
-0.80
-0.79
-0.95
-1.33
-1.95
-2.78
-3.74
-4.76
-5.75
-6.59
-7.19
-7.44
-7.35
-6.99
-6.50
-6.00
-5.57
-5.12
-4.52
-3.59
-2.20
-0.39
1.70
3.78
5.63
7.05
7.99
8.49
8.67
8.65
8.53
8.36
8.13
7.86
7.56
7.28
7.06
6.96
7.01
7.22
7.60
8.12
8.69
9.20
9.52
9.53
9.20
8.53
7.58
6.38
4.99
3.50
2.02
0.68
-0.53
-1.71
-3.10
-4.90
-7.14
-9.57
-11.74
-13.17
-13.56
-12.92
-11.55
-9.86
-8.21
-6.75
-5.41
-4.05
-2.56
-0.98
0.51
1.62
2.13
1.94
1.19
0.17
-0.79
-1.44
-1.67
-1.50
-1.02
-0.32
0.53
1.51
2.54
3.50
4.24
4.63
4.62
4.25
3.65
2.95
2.27
1.59
0.82
-0.15
-1.42
-2.97
-4.61
-6.05
-6.94
-6.98
-6.04
-4.14
-1.49
1.57
4.66
7.45
9.73
11.42
12.61
13.41
13.87
13.97
13.56
12.52
10.82
8.64
6.32
4.28
2.85
2.20
2.21
2.58
2.88
2.73
1.91
0.44
-1.42
-3.31
-4.92
-6.13
-7.06
-7.88
-8.73
-9.62
-10.42
-10.97
-11.26
-11.42
-11.63
-12.08
-12.72
-13.36
-13.69
-13.43
-12.41
-10.68
-8.45
-5.99
-3.56
-1.31
0.76
2.77
4.79
6.84
8.76
10.33
11.37
11.80
11.70
11.25
10.64
10.01
9.43
8.88
8.34
7.82
7.32
6.86
6.41
5.89
5.18
4.26
3.16
2.00
0.91
-0.01
-0.75
-1.39
-1.99
-2.64
-3.33
-4.10
-4.95
-5.92
-6.97
-7.96
-8.69
-8.97
-8.74
-8.04
-7.02
-5.85
-4.63
-3.38
-2.07
-0.69
0.77
2.30
3.89
5.49
7.03
8.37
9.36
9.91
9.99
9.71
9.20
8.60
7.95
7.23
6.42
5.52
4.58
3.67
2.83
2.02
1.13
0.05
-1.28
-2.79
-4.39
-5.99
-7.54
-9.00
-10.30
-11.28
-11.73
-11.45
-10.39
-8.66
-6.54
-4.36
-2.40
-0.82
0.38
1.26
1.92
2.41
2.76
2.93
2.89
2.59
2.00
1.22
0.37
-0.32
-0.69
-0.63
-0.18
0.55
1.37
2.09
2.61
2.86
2.82
2.44
1.61
0.08
-2.41
-6.27
-11.78
-18.95
-27.38
-36.22
-44.36
-50.67
-54.22
-54.51
-51.46
-45.35
-36.78
-26.60
-15.83
-5.52
3.44
10.53
15.70
19.21
21.43
22.67
23.02
22.54
21.38
19.88
18.49
17.65
17.56
18.14
19.04
19.84
20.23
20.11
19.52
18.61
17.56
16.48
15.47
14.56
13.69
12.74
11.58
10.15
8.56
7.07
6.07
5.84
6.49
7.84
9.50
11.02
12.05
12.45
12.27
11.68
10.80
9.70
8.35
6.71
4.86
2.91
1.11
-0.37
-1.40
-2.02
-2.29
-2.28
-2.03
-1.54
-0.85
-0.09
0.57
0.94
0.92
0.50
-0.24
-1.18
-2.23
-3.41
-4.73
-6.26
-7.94
-9.63
-11.11
-12.13
-12.50
-12.13
-11.11
-9.56
-7.70
-5.67
-3.60
-1.56
0.35
2.00
3.27
4.08
4.46
4.58
4.62
4.74
5.00
5.34
5.66
5.90
6.04
6.11
6.12
6.07
5.90
5.56
5.04
4.41
3.72
3.01
2.28
1.52
0.69
-0.20
-1.10
-2.01
-2.97
-4.00
-5.16
-6.38
-7.51
-8.37
-8.71
-8.38
-7.31
-5.60
-3.46
-1.19
0.91
2.64
3.92
4.82
5.49
6.07
6.61
7.08
7.38
7.49
7.43
7.31
7.27
7.38
7.61
7.89
8.13
8.24
8.22
8.09
7.87
7.53
7.01
6.21
5.09
3.65
1.98
0.21
-1.53
-3.17
-4.67
-6.04
-7.28
-8.41
-9.47
-10.49
-11.46
-12.34
-13.00
-13.24
-12.86
-11.78
-10.08
-7.95
-5.70
-3.54
-1.63
-0.07
1.12
1.91
2.33
2.46
2.45
2.46
2.62
2.96
3.38
3.80
4.10
4.27
4.34
4.34
4.34
4.35
4.38
4.37
4.28
4.04
3.60
2.95
2.12
1.20
0.25
-0.68
-1.55
-2.36
-3.11
-3.81
-4.51
-5.29
-6.21
-7.28
-8.36
-9.22
-9.56
-9.15
-7.96
-6.10
-3.86
-1.57
0.50
2.20
3.50
4.49
5.28
5.89
6.31
6.47
6.31
5.92
5.44
5.11
5.09
5.37
5.74
5.96
5.87
5.51
5.09
4.82
4.78
4.83
4.76
4.35
3.54
2.43
1.18
-0.04
-1.20
-2.32
-3.46
-4.67
-5.94
-7.23
-8.52
-9.71
-10.74
-11.50
-11.87
-11.79
-11.21
-10.15
-8.65
-6.78
-4.67
-2.50
-0.49
1.17
2.37
3.11
3.49
3.70
3.86
4.05
4.28
4.50
4.64
4.67
4.59
4.40
4.14
3.84
3.56
3.34
3.20
3.12
3.07
2.94
2.64
2.10
1.31
0.30
-0.84
-2.01
-3.11
-4.03
-4.76
-5.34
-5.89
-6.56
-7.46
-8.56
-9.68
-10.57
-10.99
-10.77
-9.93
-8.59
-6.93
-5.12
-3.27
-1.51
0.08
1.43
2.52
3.38
4.07
4.57
4.85
4.85
4.56
4.08
3.61
3.38
3.55
4.13
4.97
5.86
6.57
6.96
6.99
6.70
6.13
5.32
4.31
3.11
1.74
0.28
-1.15
-2.40
-3.36
-4.02
-4.44
-4.77
-5.17
-5.74
-6.48
-7.29
-7.97
-8.31
-8.16
-7.47
-6.29
-4.79
-3.16
-1.57
-0.15
1.06
2.05
2.80
3.32
3.59
3.61
3.44
3.16
2.88
2.71
2.70
2.87
3.14
3.43
3.60
3.56
3.28
2.77
2.11
1.40
0.69
-0.01
-0.73
-1.53
-2.47
-3.53
-4.68
-5.85
-6.99
-8.04
-8.98
-9.80
-10.58
-11.40
-12.35
-13.40
-14.39
-15.00
-14.90
-13.89
-12.06
-9.85
-7.92
-6.95
-7.36
-9.11
-11.70
-14.38
-16.49
-17.70
-18.19
-18.57
-19.65
-22.11
-26.12
-31.23
-36.41
-40.45
-42.41
-42.10
-40.48
-39.62
-42.08
-49.96
-63.88
-82.37
-101.76
-116.90
-122.37
-114.27
-91.59
-56.54
-13.99
30.13
70.07
101.80
123.79
136.69
142.46
143.21
140.92
137.32
133.77
131.02
129.09
127.78
126.90
126.12
124.77
122.23
118.46
114.18
110.34
107.74
106.88
107.69
108.44
105.37
93.83
70.24
33.33
-15.80
-74.23
-137.91
-197.85
-241.39
-258.93
-250.44
-224.33
-190.75
-156.45
-124.33
-94.75
-67.38
-42.88
-23.12
-10.00
-3.63
-2.19
-2.89
-3.35
-1.99
1.73
6.98
11.84
14.41
14.08
11.67
8.71
6.56
6.08
7.47
10.09
12.58
13.59
12.55
9.86
6.53
3.56
1.73
1.40
2.30
3.54
4.05
3.09
0.64
-2.76
-6.23
-8.85
-9.99
-9.63
-8.50
-7.75
-8.41
-10.96
-15.02
-19.57
-23.36
-25.45
-25.34
-23.37
-20.27
-16.83
-13.74
-11.60
-10.90
-11.59
-12.52
-10.96
-3.72
11.56
34.63
61.79
86.77
103.16
107.03
97.84
79.91
58.71
38.88
22.71
10.27
0.61
-6.92
-12.01
-13.89
-11.77
-5.75
3.30
13.95
24.50
33.58
40.55
45.52
48.93
51.54
53.71
55.54
57.06
58.60
60.66
63.64
66.73
67.35
61.92
47.30
22.87
-8.52
-41.18
-69.02
-87.62
-96.10
-96.78
-93.30
-88.88
-84.81
-80.90
-75.24
-68.00
-59.50
-50.19
-40.48
-30.06
-18.54
-5.53
8.66
23.15
36.31
46.48
52.36
52.88
47.74
37.15
21.91
2.99
-17.91
-39.00
-58.18
-73.63
-84.00
-88.72
-87.95
-80.96
-69.77
-55.36
-38.35
-19.19
1.17
21.41
39.75
54.37
64.18
68.50
67.38
60.94
49.41
33.75
16.43
1.88
-5.29
-2.47
9.26
25.49
40.18
48.84
50.87
49.22
47.85
48.21
47.70
41.26
25.04
-0.51
-30.02
-55.54
-70.64
-73.75
-68.44
-61.32
-58.78
-63.55
-74.64
-88.88
-103.27
-116.14
-126.67
-133.24
-132.49
-120.11
-92.82
-50.73
1.73
56.97
107.06
146.17
172.73
188.73
197.89
203.37
207.50
212.78
221.66
235.92
256.04
281.53
311.44
336.71
348.81
342.35
317.50
278.87
232.74
185.05
140.40
101.15
66.95
31.50
-10.11
-57.73
-107.69
-156.38
-201.75
-242.97
-279.88
-312.60
-346.63
-384.21
-421.53
-452.36
-473.42
-485.86
-493.71
-501.92
-472.76
-395.03
-290.08
-190.53
-113.58
-59.38
-21.46
6.21
27.32
43.82
50.67
46.27
35.28
25.06
20.36
21.80
27.41
34.65
41.55
41.82
32.30
15.29
-3.34
-17.40
-21.76
-12.81
10.35
44.83
80.98
109.42
125.30
129.08
124.51
116.31
108.16
101.69
96.47
89.79
80.40
69.71
60.54
54.87
52.66
52.33
51.85
49.54
44.54
37.46
30.18
24.63
21.81
21.32
21.80
21.63
19.66
15.83
10.99
6.58
3.82
3.20
4.15
5.39
5.46
3.41
-0.66
-5.61
-9.79
-11.83
-11.32
-9.18
-7.14
-7.17
-10.54
-17.11
-25.37
-33.06
-38.27
-40.35
-40.38
-40.42
-42.50
-47.86
-55.72
-63.66
-68.40
-67.25
-58.49
-41.93
-18.62
8.77
35.75
56.46
64.66
57.39
36.79
11.09
-9.49
-15.61
-3.39
23.58
56.01
83.19
97.77
98.12
87.56
71.34
53.82
36.82
20.11
3.32
-12.87
-26.56
-35.44
-38.48
-36.67
-32.37
-28.03
-25.37
-24.50
-24.27
-23.01
-19.55
-13.73
-6.64
0.10
5.43
8.99
11.28
13.23
15.63
18.74
22.22
25.31
27.49
29.20
31.31
34.73
39.88
46.45
53.36
59.17
62.60
63.22
62.51
63.28
68.66
80.79
99.30
120.64
138.81
147.17
137.31
106.09
55.90
-6.63
-72.57
-132.35
-177.25
-200.86
-200.90
-180.35
-146.53
-109.17
-77.57
-57.15
-47.36
-42.20
-33.89
-16.92
9.91
45.07
86.46
131.42
176.18
214.70
239.24
242.03
218.24
168.71
97.81
20.02
-45.83
-85.60
-96.71
-86.10
-64.00
-38.34
-13.39
10.20
33.82
58.29
83.26
107.04
128.52
147.72
164.72
177.77
184.66
183.96
174.82
157.10
130.61
96.35
56.15
11.78
-37.25
-91.69
-151.49
-216.18
-277.90
-330.83
-370.28
-393.67
-400.92
-396.43
-385.58
-373.19
-362.88
-357.10
-358.13
-365.88
-377.04
-371.93
-336.67
-268.03
-176.47
-80.58
2.32
61.73
96.30
111.34
114.65
110.35
100.01
84.01
63.70
42.23
23.21
9.80
3.32
3.63
7.43
11.09
12.39
11.30
9.52
8.92
10.75
15.48
22.55
29.57
34.36
35.94
35.12
34.21
36.22
41.64
51.13
64.66
81.06
99.14
118.42
139.17
161.71
185.38
207.85
225.86
235.96
235.86
225.45
206.98
183.94
159.71
136.56
115.50
97.08
81.72
69.87
61.63
56.33
52.34
47.66
40.86
31.81
22.20
14.61
11.41
13.63
20.36
29.07
36.65
40.60
39.84
34.74
26.29
15.35
2.43
-12.00
-26.91
-40.46
-50.34
-54.60
-52.47
-44.66
-33.08
-20.21
-8.51
0.05
4.39
4.50
1.42
-3.16
-7.62
-11.09
-13.76
-16.40
-19.48
-22.36
-23.27
-20.19
-11.92
1.26
17.78
35.58
52.97
69.14
84.06
98.14
111.77
125.09
137.63
148.45
156.10
159.13
156.70
149.06
137.83
125.85
116.71
114.03
120.30
135.11
154.71
172.28
179.79
170.77
142.75
98.32
44.07
-11.96
-64.13
-109.78
-148.65
-180.99
-205.87
-221.02
-224.37
-215.73
-197.77
-177.48
-163.48
-163.61
-182.45
-219.32
-268.15
-319.19
-361.67
-386.77
-392.00
-380.19
-358.47
-335.60
-319.55
-316.26
-329.05
-358.32
-387.93
-400.95
-382.76
-328.48
-245.52
-148.53
-52.08
34.18
106.29
164.23
207.52
235.74
248.63
247.57
236.57
221.17
206.84
197.46
194.28
194.81
195.26
192.16
183.97
171.82
158.60
147.68
141.66
141.55
145.92
152.31
158.01
161.11
161.32
158.78
153.88
146.81
137.30
124.28
106.69
84.01
56.62
26.36
-4.68
-34.49
-61.62
-85.23
-105.26
-122.03
-135.88
-148.82
-160.16
-169.11
-174.91
-176.81
-174.12
-166.26
-152.79
-133.70
-107.18
-76.15
-43.76
-12.77
14.75
37.69
56.00
70.62
82.86
93.70
103.29
111.03
115.69
116.37
112.22
103.39
90.89
76.01
59.76
42.50
24.17
4.36
-17.17
-40.46
-65.21
-90.71
-115.16
-135.18
-146.00
-142.93
-123.70
-90.09
-48.06
-5.99
28.22
49.79
57.52
55.06
47.77
39.56
31.87
24.51
17.12
10.05
4.35
0.88
-0.34
-0.52
-1.68
-5.70
-13.07
-22.89
-33.40
-42.58
-48.89
-51.48
-50.49
-47.11
-42.74
-38.08
-33.16
-27.60
-21.03
-13.37
-4.92
3.48
10.20
13.44
12.16
6.01
-4.84
-19.86
-38.04
-59.71
-83.09
-105.74
-127.68
-148.87
-169.06
-187.86
-204.77
-218.37
-227.13
-230.08
-227.77
-221.85
-213.91
-205.14
-195.96
-185.67
-172.44
-153.69
-127.69
-94.94
-57.82
-19.13
18.74
54.35
87.40
121.89
162.44
211.82
269.21
330.73
391.45
446.99
494.29
531.92
564.14
596.13
631.41
670.39
711.57
753.30
794.18
831.92
833.83
775.70
649.96
472.21
274.48
90.30
-57.30
-160.18
-223.09
-256.16
-271.34
-275.69
-272.76
-265.55
-257.41
-251.60
-250.55
-255.31
-265.05
-274.53
-278.78
-275.78
-267.37
-255.84
-241.32
-221.34
-192.77
-154.19
-105.98
-52.23
-0.77
37.77
55.07
47.52
16.52
-32.89
-93.77
-158.41
-220.69
-277.60
-329.57
-375.51
-410.73
-427.83
-420.15
-385.14
-325.89
-250.51
-161.54
-70.32
9.59
69.33
107.96
129.49
137.98
135.40
122.75
101.92
75.14
46.84
21.87
3.12
-9.70
-19.47
-29.44
-42.12
-57.40
-73.92
-88.17
-96.03
-94.59
-83.40
-64.15
-39.30
-10.98
19.24
49.00
77.02
102.89
126.12
145.63
159.86
167.59
168.54
163.64
154.64
144.08
134.41
127.08
122.13
118.45
114.63
109.70
103.42
96.34
89.53
84.10
80.82
80.07
81.82
85.40
89.11
90.21
85.79
74.04
55.70
34.19
14.55
1.21
-3.94
-2.05
2.89
6.87
7.19
3.13
-4.64
-15.03
-27.41
-41.56
-57.28
-73.73
-89.29
-102.13
-110.69
-114.29
-113.32
-108.96
-102.63
-95.49
-88.09
-80.43
-72.25
-63.38
-54.06
-44.95
-37.11
-31.57
-29.02
-29.33
-31.28
-32.84
-31.65
-26.01
-15.56
-1.65
13.23
26.27
35.25
38.97
37.29
30.67
19.61
5.75
-9.36
-23.91
-36.04
-44.28
-48.13
-48.21
-46.06
-43.49
-41.78
-41.51
-42.33
-43.45
-44.10
-43.87
-42.75
-40.89
-38.39
-35.22
-31.43
-27.19
-22.86
-18.77
-15.16
-11.98
-9.05
-6.21
-3.52
-1.33
0.01
0.35
-0.15
-1.07
-2.02
-2.63
-2.76
-2.30
-1.24
0.38
2.42
4.59
6.54
7.91
8.64
8.89
9.07
9.58
10.64
12.27
14.28
16.55
19.17
22.58
27.37
33.93
42.01
50.46
57.70
62.36
64.00
63.34
61.99
61.54
62.82
65.73
69.57
73.74
78.08
82.60
86.92
89.81
89.39
83.93
72.86
57.19
39.24
21.51
5.71
-7.75
-19.45
-30.16
-40.07
-48.58
-54.79
-58.19
-59.16
-58.75
-58.13
-57.91
-57.91
-57.33
-55.44
-52.13
-48.03
-44.27
-41.90
-41.32
-42.13
-43.24
-43.38
-41.53
-37.38
-31.37
-24.49
-17.92
-12.62
-9.10
-7.46
-7.53
-9.09
-11.95
-15.82
-20.24
-24.40
-27.29
-28.02
-26.01
-21.14
-13.68
-4.11
6.90
18.47
29.37
38.05
42.95
42.89
37.64
28.02
15.77
2.97
-8.45
-17.10
-22.24
-23.64
-21.50
-16.45
-9.52
-2.12
4.28
8.51
10.07
9.30
7.15
4.81
3.27
3.07
4.32
6.78
10.04
13.66
17.19
20.18
22.28
23.29
23.22
22.29
20.82
19.08
17.20
15.14
12.84
10.30
7.68
5.28
3.38
2.18
1.67
1.66
1.84
1.95
1.83
1.43
0.76
-0.13
-1.16
-2.20
-3.02
-3.32
-2.84
-1.40
0.95
4.00
7.42
10.83
13.90
16.41
18.24
19.41
20.02
20.23
20.21
20.07
19.89
19.65
19.34
18.96
18.51
18.03
17.56
17.14
16.85
16.76
17.02
17.57
18.20
18.49
17.94
16.20
13.25
9.38
5.00
0.53
-3.88
-8.19
-12.36
-16.19
-19.30
-21.28
-21.89
-21.20
-19.57
-17.51
-15.42
-13.53
-11.86
-10.38
-9.03
-7.86
-6.88
-6.13
-5.55
-5.00
-4.33
-3.40
-2.20
-0.84
0.45
1.46
2.05
2.24
2.20
2.11
2.11
2.13
2.02
1.56
0.68
-0.52
-1.76
-2.72
-3.20
-3.16
-2.76
-2.22
-1.77
-1.51
-1.50
-1.70
-2.05
-2.46
-2.80
-2.94
-2.78
-2.29
-1.55
-0.70
0.10
0.78
1.35
1.86
2.43
3.07
3.74
4.33
4.74
4.86
4.66
4.18
3.52
2.78
2.09
1.48
0.92
0.35
-0.39
-1.42
-2.74
-4.26
-5.76
-6.87
-7.28
-6.82
-5.55
-3.66
-1.49
0.72
2.81
4.69
6.31
7.62
8.55
9.10
9.38
9.51
9.64
9.76
9.75
9.50
8.95
8.22
7.53
7.08
6.88
6.85
6.74
6.39
5.76
4.98
4.20
3.53
2.99
2.49
2.00
1.54
1.20
1.05
1.04
1.03
0.81
0.26
-0.59
-1.54
-2.39
-2.94
-3.13
-2.95
-2.41
-1.54
-0.40
0.87
2.03
2.86
3.26
3.32
3.28
3.37
3.72
4.27
4.85
5.33
5.67
5.97
6.37
6.92
7.51
7.95
8.02
7.59
6.66
5.30
3.65
1.79
-0.24
-2.40
-4.66
-6.91
-9.03
-10.98
-12.80
-14.59
-16.50
-18.58
-20.65
-22.33
-23.16
-22.77
-21.06
-18.32
-15.10
-12.10
-9.92
-8.91
-9.18
-10.53
-12.57
-14.84
-16.97
-18.70
-19.99
-21.02
-22.13
-23.66
-25.81
-28.48
-31.21
-33.35
-34.26
-33.50
-31.03
-27.17
-22.53
-17.75
-13.35
-9.50
-6.10
-2.89
0.34
3.56
6.56
9.04
10.90
12.45
14.24
16.89
20.64
25.12
29.51
32.85
34.53
34.51
33.12
30.77
27.61
23.38
17.62
9.96
0.46
-10.45
-22.17
-34.14
-45.99
-57.41
-67.90
-76.54
-81.98
-82.81
-78.06
-67.64
-52.48
-34.31
-15.13
3.28
19.77
33.81
45.24
53.97
59.82
62.69
62.78
60.87
58.24
56.36
56.27
58.12
60.97
63.21
63.24
60.16
54.15
46.47
38.89
33.10
30.08
29.98
32.06
34.98
37.15
37.04
33.47
25.70
13.59
-2.37
-21.11
-41.03
-60.37
-77.43
-90.90
-100.04
-104.79
-105.66
-103.52
-99.40
-94.26
-88.73
-83.04
-77.04
-70.31
-62.52
-53.65
-44.08
-34.47
-25.50
-17.55
-10.61
-4.39
1.40
6.83
11.85
16.37
20.53
24.55
28.57
32.30
35.00
35.82
34.34
31.04
27.22
24.45
23.80
25.32
28.06
30.75
32.52
33.29
33.55
33.82
34.06
33.61
31.67
27.81
22.42
16.56
11.49
8.05
6.44
6.33
7.31
9.22
12.25
16.77
22.86
30.11
37.53
43.76
47.51
48.00
45.19
39.77
32.93
25.90
19.58
14.38
10.19
6.57
3.05
-0.74
-5.07
-10.10
-15.84
-22.16
-28.60
-34.47
-39.01
-41.76
-42.75
-42.58
-42.12
-42.12
-42.92
-44.34
-45.81
-46.59
-46.05
-43.75
-39.52
-33.53
-26.24
-18.38
-10.84
-4.44
0.19
2.70
3.06
1.46
-1.77
-6.14
-11.16
-16.30
-21.28
-26.12
-31.10
-36.56
-42.46
-48.24
-52.72
-54.48
-52.40
-46.07
-36.07
-23.76
-10.83
1.24
11.51
19.82
26.58
32.54
38.53
45.05
52.08
59.03
64.85
68.55
69.55
67.91
64.20
59.14
53.21
46.57
39.25
31.47
23.72
16.58
10.44
5.23
0.54
-4.04
-8.54
-12.46
-15.04
-15.64
-14.08
-10.67
-6.07
-0.92
4.19
8.92
13.14
16.91
20.49
24.31
28.78
34.14
40.35
47.08
53.93
60.45
66.20
70.56
72.70
71.65
66.70
57.76
45.57
31.55
17.28
4.03
-7.65
-17.78
-26.65
-34.51
-41.36
-47.08
-51.66
-55.29
-58.40
-61.38
-64.49
-67.65
-70.58
-72.84
-73.97
-73.66
-71.85
-68.77
-64.85
-60.53
-56.11
-51.62
-46.84
-41.42
-35.21
-28.41
-21.69
-16.02
-12.33
-11.10
-12.05
-14.13
-15.84
-15.68
-12.62
-6.44
2.31
12.51
22.86
32.12
39.41
44.18
46.28
46.03
44.11
41.53
39.28
38.18
38.48
40.17
42.99
46.60
50.55
54.11
56.39
56.61
54.53
50.82
46.87
44.17
43.47
44.32
45.19
44.32
40.59
34.06
25.81
17.36
9.96
4.18
-0.01
-2.97
-5.08
-6.63
-7.99
-9.52
-11.64
-14.69
-18.75
-23.48
-28.26
-32.33
-35.07
-36.29
-36.20
-35.43
-34.74
-34.79
-35.97
-38.22
-41.10
-43.85
-45.65
-45.86
-44.16
-40.67
-35.82
-30.27
-24.76
-20.10
-17.15
-16.71
-19.30
-24.83
-32.52
-40.86
-48.10
-52.80
-54.25
-52.63
-48.85
-44.08
-39.29
-34.87
-30.61
-25.92
-20.24
-13.36
-5.57
2.53
10.24
17.07
22.72
27.04
29.89
31.15
30.88
29.56
28.11
27.76
29.52
33.93
40.70
48.83
57.00
63.84
68.38
70.20
69.60
67.33
64.45
61.85
60.02
58.81
57.50
55.12
50.89
44.64
36.92
28.88
21.80
16.70
14.04
13.72
15.21
17.84
21.01
24.28
27.44
30.46
33.39
36.43
39.64
42.89
45.55
46.55
44.49
38.21
27.26
12.20
-5.35
-23.27
-39.46
-52.46
-61.65
-67.20
-69.72
-69.93
-68.49
-65.92
-62.66
-59.16
-55.75
-52.62
-49.90
-47.68
-46.13
-45.46
-45.74
-46.68
-47.57
-47.50
-45.84
-42.55
-38.20
-33.68
-29.80
-26.85
-24.73
-23.21
-22.22
-22.01
-22.90
-24.97
-27.86
-30.93
-33.41
-34.67
-34.23
-31.64
-26.61
-19.04
-9.19
2.19
14.03
25.33
35.30
43.49
49.75
54.09
56.61
57.45
56.84
55.11
52.60
49.66
46.53
43.44
40.53
37.82
35.21
32.41
29.22
25.69
22.09
18.86
16.32
14.47
13.00
11.52
9.80
7.95
6.37
5.53
5.80
7.22
9.56
12.29
14.58
15.39
13.82
9.52
3.18
-3.54
-8.54
-10.29
-8.73
-5.34
-2.50
-2.21
-5.14
-10.39
-16.14
-20.71
-23.36
-24.32
-24.31
-23.99
-23.57
-23.11
-22.68
-22.64
-23.42
-25.25
-27.99
-31.02
-33.51
-34.56
-33.45
-29.84
-23.96
-16.66
-9.26
-3.08
1.12
3.37
4.59
5.98
8.48
12.29
16.89
21.32
24.72
26.58
26.86
25.88
24.14
22.22
20.58
19.50
18.98
18.81
18.70
18.52
18.44
18.89
20.31
22.97
26.75
31.24
35.81
39.85
42.74
43.89
42.86
39.48
34.05
27.42
20.74
15.13
11.32
9.51
9.54
11.10
13.92
17.74
22.08
26.12
28.70
28.59
24.88
17.25
6.17
-7.20
-21.30
-34.43
-45.21
-52.85
-57.18
-58.72
-58.30
-56.88
-55.16
-53.58
-52.16
-50.76
-49.21
-47.40
-45.36
-43.19
-40.87
-38.23
-35.00
-30.95
-26.19
-21.21
-16.68
-13.13
-10.60
-8.57
-6.19
-2.64
2.42
8.65
15.13
20.67
24.22
25.31
24.12
21.50
18.63
16.54
15.78
16.25
17.43
18.58
19.13
18.76
17.34
14.81
11.27
6.99
2.47
-1.59
-4.64
-6.43
-7.09
-7.10
-7.07
-7.64
-9.29
-12.33
-16.71
-21.89
-26.86
-30.26
-30.92
-28.34
-23.03
-16.32
-9.86
-4.90
-1.94
-0.72
-0.61
-1.01
-1.55
-2.03
-2.23
-1.90
-0.72
1.36
4.05
6.70
8.50
8.86
7.62
5.11
2.00
-0.98
-3.32
-4.86
-5.84
-6.63
-7.56
-8.63
-9.55
-9.91
-9.56
-8.68
-7.87
-7.83
-9.08
-11.64
-14.86
-17.44
-17.79
-14.65
-7.62
2.21
12.39
19.87
22.29
19.10
11.83
3.36
-3.48
-7.14
-7.78
-6.63
-4.98
-3.31
-1.28
1.75
5.99
11.00
15.89
19.86
22.67
24.73
26.70
29.09
31.99
34.98
37.47
38.89
39.01
37.99
36.42
34.96
34.17
34.25
34.92
35.58
35.49
34.11
31.25
27.11
22.09
16.66
11.10
5.52
-0.05
-5.51
-10.60
-14.97
-18.33
-20.76
-22.68
-24.82
-27.90
-32.35
-38.14
-44.71
-51.18
-56.55
-59.94
-60.78
-58.87
-54.46
-48.16
-40.73
-32.89
-25.00
-17.03
-8.72
0.10
9.15
17.60
24.30
28.31
29.40
28.18
25.94
24.03
23.25
23.58
24.25
24.29
23.09
20.53
17.03
13.13
9.28
5.65
2.41
-0.31
-2.25
-3.10
-2.75
-1.46
0.15
1.21
1.01
-0.78
-3.89
-7.61
-10.96
-13.13
-13.54
-12.01
-8.73
-4.11
1.30
6.77
11.48
14.64
15.58
14.00
10.04
4.21
-2.76
-10.17
-17.49
-24.30
-30.31
-35.31
-39.07
-41.47
-42.45
-42.02
-40.28
-37.49
-34.02
-30.47
-27.53
-25.78
-25.38
-25.84
-26.12
-24.95
-21.52
-15.87
-9.00
-2.45
2.44
5.11
6.00
6.18
6.71
8.15
10.37
12.77
14.79
16.24
17.35
18.58
20.21
22.16
24.09
25.56
26.31
26.42
26.29
26.33
26.75
27.39
27.79
27.39
25.90
23.39
20.24
16.94
13.81
10.93
8.20
5.57
3.19
1.34
0.30
0.01
0.03
-0.34
-1.75
-4.48
-8.27
-12.40
-16.06
-18.62
-19.87
-20.01
-19.40
-18.38
-17.10
-15.59
-13.91
-12.35
-11.46
-11.92
-14.15
-18.03
-22.83
-27.47
-31.11
-33.43
-34.83
-36.00
-37.48
-39.14
-40.08
-38.97
-34.60
-26.42
-14.75
-0.69
14.31
28.73
41.28
50.97
57.22
59.91
59.50
56.89
53.25
49.68
46.81
44.64
42.60
39.86
35.76
30.09
23.15
15.56
8.09
1.31
-4.51
-9.40
-13.63
-17.45
-20.92
-23.84
-25.76
-26.18
-24.81
-21.74
-17.42
-12.60
-8.11
-4.59
-2.43
-1.70
-2.28
-3.97
-6.58
-9.86
-13.45
-16.84
-19.22
-19.74
-17.65
-12.71
-5.55
2.54
9.93
15.29
18.13
18.90
18.58
18.08
17.73
17.14
15.59
12.55
8.11
3.04
-1.50
-4.50
-5.43
-4.25
-1.32
2.89
7.78
12.64
16.65
19.12
19.59
18.06
14.97
11.11
7.31
4.24
2.29
1.56
1.99
3.27
4.93
6.32
6.79
5.82
3.29
-0.47
-4.78
-8.87
-12.11
-14.32
-15.70
-16.76
-18.05
-19.69
-21.32
-22.13
-21.16
-17.81
-12.12
-4.93
2.37
8.23
11.48
11.70
9.24
5.09
0.46
-3.73
-7.06
-9.64
-11.87
-14.01
-15.91
-17.08
-16.87
-15.03
-11.93
-8.54
-5.99
-5.00
-5.49
-6.64
-7.32
-6.53
-3.68
1.40
8.69
17.89
28.29
38.59
47.02
51.87
52.32
48.87
43.18
37.25
32.38
28.73
25.52
21.95
17.97
14.46
12.61
13.09
15.47
18.37
20.15
19.72
17.01
12.83
8.41
4.77
2.29
0.76
-0.36
-1.54
-2.87
-4.08
-4.71
-4.42
-3.30
-1.88
-0.97
-1.38
-3.65
-7.88
-13.69
-20.35
-26.88
-32.32
-35.98
-37.71
-38.09
-38.17
-39.15
-41.66
-45.44
-49.20
-51.11
-49.52
-43.75
-34.49
-23.59
-13.35
-5.63
-1.17
0.58
1.00
1.51
2.87
4.89
6.79
7.79
7.67
6.86
6.16
6.29
7.51
9.68
12.46
15.56
18.85
22.19
25.27
27.50
28.22
26.95
23.72
18.96
13.38
7.64
2.23
-2.48
-6.33
-9.12
-10.82
-11.60
-11.82
-11.93
-12.30
-13.02
-13.91
-14.73
-15.36
-15.97
-16.93
-18.57
-20.98
-23.90
-26.89
-29.42
-31.12
-31.84
-31.66
-30.82
-29.62
-28.33
-27.11
-25.90
-24.45
-22.42
-19.48
-15.39
-10.13
-3.86
3.11
10.36
17.43
23.91
29.49
34.01
37.54
40.30
42.64
44.78
46.71
48.10
48.51
47.58
45.29
42.04
38.50
35.38
33.14
31.86
31.36
31.39
31.77
32.44
33.43
34.67
36.08
37.50
38.72
39.40
39.14
37.50
34.19
29.20
22.82
15.58
7.97
0.34
-7.17
-14.38
-21.00
-26.58
-30.69
-33.23
-34.44
-34.85
-34.98
-35.17
-35.50
-35.94
-36.58
-37.61
-39.29
-41.62
-44.33
-46.76
-48.25
-48.28
-46.71
-43.76
-39.93
-35.78
-31.84
-28.50
-25.97
-24.32
-23.42
-23.04
-22.84
-22.49
-21.68
-20.22
-17.96
-14.80
-10.69
-5.70
-0.08
5.65
10.78
14.67
16.96
17.85
18.10
18.76
20.72
24.44
29.74
36.04
42.48
48.38
53.22
56.71
58.67
59.01
57.74
55.07
51.39
47.15
42.77
38.53
34.55
30.87
27.46
24.34
21.54
19.15
17.28
16.09
15.71
16.22
17.60
19.57
21.72
23.46
24.32
24.08
22.92
21.35
19.95
19.02
18.39
17.43
15.39
11.78
6.60
0.37
-6.23
-12.69
-18.86
-24.87
-30.81
-36.47
-41.24
-44.41
-45.52
-44.67
-42.59
-40.31
-38.71
-38.11
-38.19
-38.11
-36.90
-33.82
-28.58
-21.50
-13.51
-5.98
-0.42
1.90
0.37
-4.72
-12.29
-20.82
-28.84
-35.27
-39.53
-41.38
-40.79
-37.80
-32.66
-25.97
-18.71
-12.05
-6.98
-4.01
-3.06
-3.54
-4.58
-5.31
-5.16
-3.94
-1.75
1.09
4.27
7.65
11.22
15.07
19.15
23.28
27.01
29.96
31.83
32.58
32.39
31.56
30.51
29.67
29.53
30.45
32.48
35.25
37.82
39.03
37.82
33.73
27.11
18.98
10.79
3.91
-0.82
-3.26
-4.00
-4.17
-4.95
-7.18
-10.97
-15.68
-20.21
-23.51
-25.03
-24.83
-23.50
-21.78
-20.24
-19.19
-18.65
-18.54
-18.75
-19.16
-19.63
-19.89
-19.66
-18.61
-16.52
-13.41
-9.63
-5.79
-2.67
-0.94
-0.89
-2.31
-4.57
-6.88
-8.65
-9.74
-10.49
-11.38
-12.87
-15.01
-17.48
-19.60
-20.53
-19.48
-15.97
-10.06
-2.40
5.65
12.50
16.67
17.44
15.11
11.02
7.00
4.56
4.35
5.89
7.87
8.83
7.81
4.85
0.87
-2.75
-4.91
-5.27
-4.34
-3.10
-2.39
-2.39
-2.66
-2.42
-1.23
0.70
2.42
2.86
1.39
-1.80
-5.84
-9.68
-12.61
-14.50
-15.67
-16.48
-17.10
-17.32
-16.81
-15.29
-12.72
-9.31
-5.39
-1.32
2.60
6.09
9.01
11.30
13.06
14.52
15.89
17.16
18.06
18.18
17.30
15.59
13.69
12.35
12.10
12.97
14.48
15.90
16.63
16.31
14.82
12.04
7.77
1.87
-5.39
-13.12
-20.00
-24.79
-26.90
-26.64
-25.06
-23.40
-22.48
-22.60
-23.52
-24.82
-26.14
-27.19
-27.59
-26.88
-24.57
-20.47
-14.91
-8.71
-2.88
1.81
5.16
7.50
9.37
11.10
12.61
13.46
13.16
11.61
9.29
7.03
5.69
5.68
6.83
8.58
10.28
11.56
12.41
12.90
13.02
12.47
10.88
8.04
4.16
-0.08
-3.71
-5.89
-6.15
-4.62
-1.91
1.03
3.17
3.75
2.46
-0.45
-4.25
-8.05
-10.97
-12.47
-12.44
-11.25
-9.51
-7.89
-6.88
-6.60
-6.74
-6.78
-6.26
-5.07
-3.49
-2.06
-1.17
-0.92
-0.97
-0.93
-0.57
0.03
0.56
0.86
1.01
1.44
2.60
4.65
7.27
9.72
11.15
11.00
9.25
6.52
3.75
1.84
1.28
2.02
3.55
5.04
5.71
4.98
2.62
-1.15
-5.72
-10.24
-13.84
-15.91
-16.33
-15.41
-13.69
-11.62
-9.27
-6.43
-2.90
1.28
5.68
9.70
12.84
14.98
16.36
17.30
18.04
18.51
18.45
17.61
15.95
13.78
11.64
10.06
9.47
9.96
11.21
12.58
13.45
13.47
12.81
11.99
11.51
11.58
11.87
11.77
10.70
8.58
5.86
3.29
1.51
0.70
0.61
0.75
0.77
0.65
0.81
1.83
4.16
7.84
12.35
16.66
19.60
20.19
18.05
13.42
7.09
0.14
-6.32
-11.40
-14.56
-15.74
-15.30
-13.89
-12.33
-11.26
-11.01
-11.49
-12.43
-13.54
-14.76
-16.18
-17.91
-19.87
-21.71
-23.05
-23.66
-23.53
-22.72
-21.16
-18.45
-14.17
-8.06
-0.55
7.27
13.84
17.73
18.12
15.08
9.47
2.59
-4.18
-9.75
-13.54
-15.43
-15.59
-14.35
-12.04
-9.09
-6.14
-4.00
-3.30
-4.21
-6.07
-7.57
-7.33
-4.63
0.17
5.78
10.73
14.13
15.98
16.99
17.93
19.10
20.32
21.22
21.70
22.00
22.52
23.35
24.19
24.38
23.29
20.82
17.45
14.05
11.44
10.00
9.44
9.01
7.80
5.16
1.05
-3.99
-8.93
-12.66
-14.37
-13.83
-11.40
-7.89
-4.31
-1.43
0.26
0.71
0.24
-0.48
-0.70
0.15
2.08
4.46
6.30
6.58
4.84
1.29
-3.29
-7.98
-12.10
-15.38
-17.82
-19.44
-20.17
-19.94
-18.87
-17.48
-16.47
-16.45
-17.57
-19.36
-20.97
-21.61
-20.91
-19.09
-16.79
-14.68
-13.11
-11.95
-10.70
-8.80
-5.99
-2.37
1.61
5.39
8.56
10.98
12.72
13.96
14.85
15.44
15.73
15.74
15.60
15.45
15.45
15.52
15.41
14.75
13.34
11.24
8.92
7.01
6.00
6.06
6.92
7.99
8.65
8.50
7.47
5.85
4.06
2.49
1.31
0.42
-0.40
-1.41
-2.78
-4.61
-6.91
-9.63
-12.59
-15.34
-17.21
-17.42
-15.44
-11.38
-6.02
-0.64
3.47
5.53
5.56
4.19
2.39
0.99
0.39
0.56
1.12
1.57
1.44
0.53
-1.03
-2.63
-3.38
-2.41
0.69
5.47
10.74
14.91
16.62
15.26
11.14
5.36
-0.77
-6.20
-10.48
-13.70
-16.18
-18.14
-19.54
-20.04
-19.30
-17.22
-14.14
-10.70
-7.59
-5.13
-3.20
-1.29
1.09
4.10
7.42
10.43
12.55
13.59
13.87
14.00
14.54
15.66
17.06
18.08
18.14
16.99
14.83
12.13
9.37
6.90
4.90
3.52
2.86
2.98
3.74
4.74
5.46
5.47
4.70
3.45
2.15
0.98
-0.34
-2.53
-6.22
-11.52
-17.76
-23.71
-27.99
-29.59
-28.10
-23.69
-17.03
-9.02
-0.85
6.16
10.57
11.38
8.39
2.64
-3.81
-8.50
-9.52
-6.32
0.11
7.59
13.76
16.96
16.83
14.25
10.80
7.85
6.01
5.03
4.14
2.67
0.50
-1.97
-4.06
-5.39
-6.06
-6.60
-7.51
-8.91
-10.38
-11.23
-10.99
-9.65
-7.73
-5.88
-4.55
-3.72
-3.04
-2.09
-0.70
1.01
2.72
4.08
4.89
5.00
4.33
2.91
0.98
-0.87
-1.81
-0.98
2.03
6.96
12.90
18.66
23.13
25.63
25.93
24.14
20.64
15.98
10.79
5.80
1.59
-1.52
-3.63
-5.02
-6.07
-6.99
-7.86
-8.68
-9.44
-10.20
-11.00
-11.82
-12.57
-13.13
-13.54
-13.93
-14.34
-14.64
-14.35
-12.94
-9.98
-5.53
-0.15
5.20
9.60
12.45
13.70
13.74
13.07
12.10
10.97
9.66
8.14
6.54
5.12
4.06
3.38
2.91
2.41
1.76
1.08
0.74
1.18
2.69
5.20
8.22
11.07
13.12
14.03
13.97
13.51
13.34
13.80
14.60
14.87
13.60
10.22
5.17
-0.22
-4.24
-5.67
-4.34
-1.18
2.29
4.74
5.58
5.05
3.84
2.45
0.90
-1.19
-4.19
-8.06
-12.16
-15.44
-16.94
-16.20
-13.47
-9.56
-5.50
-2.13
0.08
1.08
1.12
0.52
-0.37
-1.28
-1.94
-2.09
-1.59
-0.41
1.24
2.99
4.39
5.11
5.00
4.11
2.58
0.57
-1.76
-4.21
-6.45
-8.09
-8.77
-8.36
-7.03
-5.25
-3.58
-2.40
-1.85
-1.74
-1.72
-1.52
-1.01
-0.31
0.38
0.76
0.68
0.06
-0.99
-2.28
-3.58
-4.67
-5.36
-5.45
-4.90
-3.77
-2.32
-0.93
0.02
0.33
0.09
-0.34
-0.53
-0.26
0.39
1.04
1.32
1.02
0.29
-0.55
-1.16
-1.38
-1.22
-0.83
-0.29
0.30
0.84
1.21
1.23
0.88
0.31
-0.12
-0.02
0.84
2.35
4.14
5.76
6.86
7.41
7.70
8.22
9.40
11.43
14.06
16.68
18.50
18.79
17.16
13.64
8.61
2.63
-3.74
-10.01
-15.76
-20.72
-24.69
-27.62
-29.54
-30.51
-30.51
-29.53
-27.64
-25.08
-22.23
-19.48
-17.03
-14.85
-12.73
-10.49
-8.17
-5.94
-3.97
-2.26
-0.64
1.09
2.93
4.53
5.39
5.08
3.50
0.94
-2.11
-5.23
-8.23
-11.18
-14.30
-17.72
-21.34
-24.84
-27.83
-30.06
-31.53
-32.42
-32.97
-33.38
-33.73
-34.02
-34.22
-34.28
-34.15
-33.79
-33.08
-31.79
-29.41
-25.36
-19.07
-10.41
0.15
11.60
22.66
32.40
40.53
47.49
54.00
60.54
66.98
72.64
76.74
78.75
78.68
76.90
73.80
69.55
64.15
57.55
49.88
41.54
33.09
25.13
18.04
11.87
6.45
1.42
-3.51
-8.49
-13.46
-18.29
-22.87
-27.23
-31.55
-35.94
-40.45
-44.92
-49.11
-52.72
-55.54
-57.35
-57.88
-56.76
-53.53
-47.84
-39.68
-29.45
-17.99
-6.36
4.31
13.17
19.66
23.70
25.55
25.72
24.73
23.03
20.80
18.16
15.25
12.43
10.23
9.16
9.44
10.86
12.79
14.47
15.32
15.09
13.76
11.36
7.80
3.03
-2.78
-8.99
-14.51
-18.07
-18.74
-16.30
-11.40
-5.32
0.46
4.82
7.26
8.03
7.87
7.65
7.99
9.06
10.63
12.35
14.02
15.66
17.38
19.14
20.55
21.02
20.01
17.42
13.73
9.78
6.41
4.06
2.61
1.54
0.24
-1.67
-4.15
-6.86
-9.42
-11.48
-12.96
-14.02
-15.03
-16.39
-18.52
-21.59
-25.46
-29.71
-33.63
-36.54
-37.94
-37.78
-36.36
-34.25
-32.03
-30.07
-28.41
-26.79
-24.86
-22.26
-18.85
-14.67
-9.98
-4.99
0.20
5.70
11.63
17.90
24.01
29.18
32.61
33.88
33.19
31.23
28.89
26.83
25.30
24.15
23.07
21.83
20.38
18.80
17.16
15.49
13.76
11.94
9.94
7.62
4.79
1.29
-2.90
-7.62
-12.59
-17.47
-21.81
-25.14
-26.89
-26.59
-24.03
-19.51
-13.84
-8.19
-3.60
-0.65
0.72
1.13
1.39
2.05
3.26
4.78
6.18
7.22
7.85
8.30
8.79
9.38
9.88
9.96
9.40
8.21
6.82
5.84
5.82
6.93
8.84
10.89
12.30
12.58
11.60
9.67
7.30
4.95
2.98
1.59
0.99
1.38
2.90
5.55
9.06
12.87
16.32
18.87
20.27
20.64
20.31
19.59
18.67
17.50
15.92
13.76
11.08
8.06
5.02
2.18
-0.38
-2.83
-5.49
-8.68
-12.63
-17.33
-22.56
-27.88
-32.75
-36.62
-39.07
-39.98
-39.54
-38.19
-36.46
-34.74
-33.19
-31.66
-29.91
-27.66
-24.83
-21.49
-17.89
-14.31
-11.02
-8.21
-5.98
-4.44
-3.68
-3.77
-4.64
-6.05
-7.51
-8.53
-8.83
-8.45
-7.81
-7.32
-7.13
-7.02
-6.51
-5.23
-3.28
-1.28
-0.09
-0.44
-2.46
-5.74
-9.47
-12.74
-14.83
-15.36
-14.32
-11.96
-8.65
-4.80
-0.64
3.82
8.70
14.18
20.21
26.44
32.35
37.41
41.34
44.18
46.25
47.83
49.00
49.58
49.23
47.74
45.22
42.08
38.89
36.11
33.91
32.18
30.67
29.19
27.72
26.28
24.85
23.24
21.07
18.02
13.90
8.90
3.44
-1.93
-6.79
-10.88
-14.26
-17.20
-20.10
-23.33
-27.05
-31.10
-34.95
-37.83
-38.98
-37.85
-34.33
-28.75
-21.82
-14.36
-7.22
-1.11
3.52
6.48
7.89
8.04
7.38
6.29
5.08
3.87
2.69
1.54
0.48
-0.38
-0.92
-1.01
-0.65
0.17
1.27
2.41
3.22
3.37
2.68
1.23
-0.59
-2.21
-3.16
-3.21
-2.57
-1.76
-1.39
-1.92
-3.48
-5.88
-8.75
-11.70
-14.45
-16.88
-18.85
-20.33
-21.30
-21.92
-22.54
-23.49
-25.00
-26.91
-28.77
-29.96
-30.11
-29.20
-27.66
-26.04
-24.80
-24.08
-23.73
-23.46
-22.98
-22.10
-20.66
-18.50
-15.55
-11.91
-7.91
-4.10
-1.01
1.07
2.15
2.54
2.66
2.81
3.22
4.02
5.38
7.50
10.49
14.33
18.77
23.46
28.05
32.34
36.20
39.56
42.21
43.94
44.55
44.06
42.76
41.07
39.41
37.98
36.67
35.25
33.55
31.62
29.73
28.19
27.16
26.48
25.74
24.35
21.84
17.97
12.65
5.92
-2.12
-11.10
-20.32
-28.71
-35.16
-38.91
-39.97
-39.05
-37.18
-35.16
-33.16
-30.86
-27.78
-23.78
-19.21
-14.79
-11.16
-8.54
-6.69
-5.09
-3.23
-0.83
2.09
5.41
8.86
12.12
14.84
16.60
17.20
16.64
15.27
13.62
12.23
11.36
10.94
10.62
9.97
8.73
6.92
4.82
2.73
0.64
-1.89
-5.76
-11.84
-20.42
-30.88
-41.71
-51.00
-57.21
-59.71
-58.81
-55.39
-50.34
-44.22
-37.34
-30.07
-23.02
-16.84
-11.83
-7.63
-3.43
1.51
7.22
12.90
17.41
19.96
20.77
20.91
21.70
23.90
27.20
30.47
32.48
32.62
31.13
28.98
27.22
26.54
27.05
28.35
29.83
30.82
30.75
29.12
25.58
20.05
12.93
5.09
-2.33
-8.23
-11.84
-12.98
-11.96
-9.43
-6.12
-2.64
0.60
3.33
5.42
6.74
7.26
6.95
5.85
4.01
1.65
-0.85
-2.90
-3.89
-3.48
-1.79
0.57
2.77
4.15
4.48
4.03
3.32
2.79
2.58
2.62
2.72
2.71
2.36
1.38
-0.60
-3.94
-8.72
-14.64
-21.07
-27.24
-32.56
-36.74
-39.83
-42.03
-43.55
-44.49
-44.86
-44.52
-43.28
-40.91
-37.22
-32.24
-26.30
-20.04
-14.29
-9.72
-6.67
-4.97
-4.11
-3.40
-2.40
-1.01
0.54
1.88
2.74
3.12
3.25
3.49
4.21
5.73
8.26
11.89
16.45
21.44
25.98
29.10
30.07
28.73
25.62
21.76
18.30
16.04
15.20
15.50
16.47
17.79
19.33
21.14
23.20
25.28
26.96
27.84
27.65
26.38
24.25
21.56
18.68
15.85
13.26
10.96
8.92
7.03
5.21
3.42
1.77
0.44
-0.35
-0.57
-0.40
-0.20
-0.47
-1.63
-3.89
-7.16
-11.02
-14.84
-17.92
-19.64
-19.63
-17.85
-14.51
-10.00
-4.83
0.46
5.37
9.52
12.71
14.98
16.59
17.93
19.34
20.98
22.71
24.17
24.90
24.51
22.95
20.52
17.85
15.67
14.59
14.79
16.03
17.68
19.03
19.54
18.94
17.31
14.90
12.02
8.93
5.91
3.15
0.79
-1.12
-2.67
-4.01
-5.30
-6.61
-7.92
-9.10
-10.01
-10.64
-11.12
-11.77
-12.99
-15.19
-18.57
-23.01
-27.99
-32.66
-36.12
-37.72
-37.40
-35.70
-33.55
-31.82
-30.96
-30.83
-30.88
-30.41
-28.97
-26.59
-23.77
-21.27
-19.72
-19.26
-19.43
-19.39
-18.26
-15.73
-12.17
-8.55
-5.88
-4.70
-4.83
-5.54
-6.01
-5.85
-5.20
-4.45
-3.83
-3.18
-1.95
0.40
4.08
8.88
14.23
19.48
24.11
27.83
30.51
32.13
32.72
32.39
31.32
29.88
28.42
27.24
26.45
25.93
25.48
24.86
24.01
22.96
21.73
20.18
17.94
14.55
9.63
3.23
-4.21
-11.92
-19.08
-25.03
-29.32
-31.68
-31.81
-29.47
-24.59
-17.52
-9.11
-0.65
6.53
11.46
13.70
13.33
10.72
6.33
0.60
-5.94
-12.61
-18.57
-23.03
-25.55
-26.12
-25.23
-23.53
-21.54
-19.47
-17.22
-14.56
-11.31
-7.58
-3.63
0.06
3.08
5.13
6.09
6.11
5.48
4.59
3.83
3.47
3.65
4.40
5.67
7.34
9.26
11.27
13.22
14.93
16.32
17.41
18.32
19.27
20.40
21.77
23.20
24.38
24.88
24.42
22.86
20.35
17.20
13.67
9.90
5.81
1.28
-3.71
-9.00
-14.27
-19.26
-23.95
-28.51
-33.24
-38.27
-43.37
-47.97
-51.33
-52.76
-51.93
-48.86
-44.00
-37.94
-31.37
-24.92
-19.09
-14.28
-10.86
-9.15
-9.37
-11.51
-15.20
-19.67
-23.90
-26.94
-28.22
-27.77
-26.10
-24.01
-22.15
-20.77
-19.70
-18.43
-16.52
-13.76
-10.29
-6.55
-3.05
-0.14
2.07
3.79
5.46
7.53
10.30
13.78
17.76
21.85
25.63
28.79
31.18
32.78
33.72
34.19
34.45
34.79
35.48
36.66
38.31
40.27
42.28
44.11
45.55
46.39
46.38
45.19
42.56
38.45
33.15
27.27
21.52
16.44
12.29
8.97
6.26
3.97
2.03
0.45
-0.79
-1.83
-2.87
-4.05
-5.33
-6.53
-7.46
-8.04
-8.40
-8.78
-9.40
-10.27
-11.25
-12.06
-12.38
-11.94
-10.59
-8.29
-5.21
-1.64
2.09
5.80
9.45
13.13
16.84
20.39
23.31
25.11
25.49
24.62
23.09
21.71
21.08
21.31
22.06
22.67
22.56
21.44
19.43
16.90
14.33
12.11
10.39
9.12
8.01
6.69
4.80
2.08
-1.55
-5.97
-10.90
-15.93
-20.72
-24.98
-28.59
-31.64
-34.36
-37.03
-39.76
-42.34
-44.17
-44.51
-42.78
-38.94
-33.76
-28.50
-24.48
-22.49
-22.39
-23.35
-24.23
-24.20
-23.04
-21.16
-19.11
-17.30
-15.70
-14.06
-12.13
-9.96
-7.90
-6.39
-5.60
-5.29
-4.87
-3.79
-1.76
0.93
3.60
5.46
6.05
5.42
4.11
2.80
2.06
2.09
2.73
3.71
4.81
6.02
7.47
9.27
11.42
13.75
16.11
18.39
20.61
22.85
25.19
27.56
29.75
31.45
32.43
32.58
32.02
31.02
29.83
28.59
27.25
25.65
23.59
21.02
18.07
15.07
12.31
9.94
7.88
5.87
3.66
1.11
-1.61
-4.00
-5.34
-4.93
-2.34
2.34
8.42
14.76
20.03
23.13
23.48
21.21
17.00
11.79
6.54
1.89
-1.76
-4.28
-5.71
-6.16
-5.90
-5.32
-4.98
-5.37
-6.82
-9.19
-11.97
-14.40
-15.85
-16.11
-15.40
-14.26
-13.17
-12.38
-11.78
-11.13
-10.17
-8.84
-7.21
-5.41
-3.60
-1.81
-0.04
1.72
3.51
5.36
7.27
9.20
11.05
12.67
13.91
14.71
15.14
15.43
15.86
16.67
17.93
19.49
21.01
22.11
22.42
21.79
20.32
18.33
16.28
14.62
13.65
13.35
13.44
13.31
12.27
9.73
5.34
-0.80
-8.17
-15.99
-23.38
-29.65
-34.52
-38.16
-41.18
-44.31
-48.06
-52.50
-57.12
-61.06
-63.43
-63.66
-61.68
-57.86
-52.73
-46.81
-40.42
-33.69
-26.72
-19.76
-13.37
-8.31
-5.27
-4.43
-5.21
-6.27
-6.07
-3.46
1.65
8.19
14.36
18.49
19.74
18.51
16.01
13.65
12.38
12.32
13.04
13.96
14.83
15.79
17.26
19.50
22.34
25.19
27.27
27.99
27.21
25.27
22.74
20.15
17.81
15.79
14.05
12.67
11.81
11.66
12.25
13.33
14.45
15.10
14.94
14.01
12.72
11.60
11.09
11.25
11.75
12.03
11.55
10.02
7.46
4.17
0.53
-3.11
-6.54
-9.75
-12.77
-15.64
-18.34
-20.75
-22.71
-23.99
-24.39
-23.66
-21.71
-18.63
-14.79
-10.83
-7.55
-5.57
-5.16
-5.99
-7.28
-8.14
-7.90
-6.44
-4.09
-1.46
0.94
2.85
4.31
5.54
6.74
8.04
9.44
10.81
11.99
12.75
13.00
12.77
12.37
12.16
12.42
13.09
13.65
13.36
11.57
8.01
3.00
-2.78
-8.55
-13.80
-18.43
-22.68
-26.89
-31.26
-35.85
-40.52
-45.01
-48.90
-51.59
-52.42
-50.87
-46.85
-40.90
-34.09
-27.68
-22.64
-19.36
-17.51
-16.37
-15.19
-13.53
-11.38
-9.00
-6.76
-4.93
-3.67
-3.10
-3.33
-4.37
-6.02
-7.72
-8.62
-7.90
-5.08
-0.27
5.91
12.55
18.89
24.51
29.29
33.29
36.49
38.80
40.08
40.30
39.61
38.25
36.38
34.09
31.36
28.22
24.75
21.16
17.67
14.52
11.97
10.18
9.34
9.58
10.86
12.96
15.46
17.78
19.41
20.03
19.56
18.30
16.78
15.62
15.27
15.84
16.94
17.87
17.84
16.34
13.31
9.12
4.37
-0.40
-4.78
-8.59
-11.73
-14.09
-15.57
-16.08
-15.63
-14.35
-12.45
-10.19
-7.94
-6.10
-4.99
-4.72
-5.11
-5.70
-5.96
-5.55
-4.49
-3.24
-2.42
-2.50
-3.56
-5.29
-7.19
-8.85
-10.17
-11.40
-13.00
-15.38
-18.77
-23.03
-27.74
-32.33
-36.16
-38.81
-40.11
-40.19
-39.34
-37.90
-36.05
-33.74
-30.75
-26.87
-22.06
-16.51
-10.55
-4.47
1.43
6.85
11.34
14.37
15.59
15.04
13.30
11.34
10.08
9.97
10.79
11.81
12.25
11.73
10.48
9.11
8.28
8.24
8.72
9.08
8.67
7.23
5.07
2.95
1.75
2.09
3.95
6.70
9.45
11.38
12.12
11.91
11.35
11.11
11.51
12.44
13.33
13.54
12.60
10.36
7.08
3.29
-0.40
-3.45
-5.53
-6.55
-6.53
-5.58
-3.79
-1.20
2.12
6.00
10.10
13.99
17.28
19.78
21.58
22.96
24.25
25.53
26.68
27.33
27.16
26.00
23.99
21.54
19.20
17.48
16.57
16.34
16.29
15.66
13.77
10.26
5.25
-0.75
-6.99
-12.86
-18.08
-22.85
-27.63
-32.91
-38.86
-45.16
-50.82
-54.52
-54.92
-51.22
-43.52
-32.91
-21.13
-10.08
-1.20
4.80
7.98
8.80
7.86
5.55
2.08
-2.34
-7.25
-11.92
-15.47
-17.20
-16.89
-14.92
-12.15
-9.56
-7.89
-7.31
-7.47
-7.71
-7.45
-6.50
-5.09
-3.76
-2.99
-2.95
-3.45
-4.02
-4.21
-3.84
-3.04
-2.08
-1.15
-0.16
1.20
3.12
5.54
8.11
10.44
12.50
14.60
17.25
20.68
24.58
28.08
30.22
30.43
28.86
26.30
23.68
21.65
20.35
19.49
18.70
17.79
16.74
15.64
14.41
12.79
10.52
7.56
4.31
1.53
0.06
0.43
2.56
5.74
8.90
11.02
11.50
10.32
8.00
5.32
2.97
1.34
0.41
-0.15
-0.72
-1.46
-2.26
-2.81
-2.75
-2.03
-0.88
0.27
1.03
1.24
1.05
0.81
0.83
1.24
1.91
2.59
3.08
3.43
3.84
4.56
5.68
7.00
8.08
8.43
7.79
6.26
4.26
2.28
0.65
-0.57
-1.60
-2.65
-3.84
-5.07
-6.05
-6.52
-6.33
-5.49
-4.10
-2.30
-0.20
2.04
4.24
6.11
7.37
7.83
7.49
6.52
5.31
4.24
3.63
3.57
3.93
4.43
4.78
4.86
4.74
4.71
5.03
5.81
6.87
7.85
8.34
8.14
7.29
5.98
4.46
2.83
1.08
-0.81
-2.82
-4.76
-6.37
-7.41
-7.70
-7.22
-6.00
-4.17
-1.88
0.57
2.81
4.41
5.01
4.34
2.34
-0.95
-5.41
-10.76
-16.60
-22.40
-27.70
-32.32
-36.45
-40.53
-44.95
-49.71
-54.29
-57.79
-59.37
-58.59
-55.64
-51.19
-46.17
-41.41
-37.59
-35.02
-33.68
-33.17
-32.76
-31.63
-29.15
-25.20
-20.14
-14.70
-9.58
-5.18
-1.54
1.64
4.70
7.86
11.21
14.70
18.26
21.73
24.88
27.40
28.98
29.37
28.51
26.54
23.74
20.57
17.54
15.28
14.32
15.02
17.25
20.35
23.30
25.06
25.04
23.28
20.47
17.57
15.35
14.10
13.51
12.97
11.86
9.94
7.44
4.94
3.04
2.13
2.23
3.00
4.08
5.21
6.32
7.52
8.94
10.62
12.44
14.24
15.89
17.31
18.53
19.56
20.48
21.36
22.27
23.26
24.30
25.28
25.96
26.11
25.56
24.33
22.63
20.74
18.97
17.55
16.51
15.72
14.94
13.90
12.41
10.32
7.61
4.41
0.89
-2.60
-5.62
-7.75
-8.74
-8.70
-8.12
-7.67
-7.83
-8.69
-9.77
-10.33
-9.72
-7.80
-5.00
-2.10
0.18
1.49
1.91
1.80
1.53
1.18
0.65
-0.26
-1.63
-3.30
-4.95
-6.27
-7.07
-7.38
-7.44
-7.56
-8.04
-9.11
-10.88
-13.30
-16.26
-19.55
-22.96
-26.41
-29.87
-33.50
-37.47
-41.88
-46.57
-51.11
-54.93
-57.53
-58.63
-58.30
-56.67
-53.84
-49.75
-44.38
-38.01
-31.42
-25.65
-21.49
-18.96
-17.04
-14.19
-9.15
-1.68
7.14
15.51
21.72
24.98
25.61
24.76
23.64
23.04
23.11
23.59
24.10
24.46
24.72
25.03
25.50
25.98
26.13
25.47
23.68
20.77
17.20
13.72
11.04
9.50
8.92
8.78
8.45
7.55
6.11
4.43
2.92
1.87
1.36
1.37
1.85
2.74
4.00
5.56
7.26
8.94
10.37
11.46
12.11
12.32
12.15
11.64
10.93
10.14
9.40
8.80
8.40
8.17
8.09
8.08
8.02
7.82
7.35
6.50
5.25
3.66
1.83
-0.10
-2.08
-4.07
-6.06
-8.04
-9.93
-11.68
-13.31
-14.96
-16.78
-18.94
-21.40
-23.86
-25.90
-27.03
-26.87
-25.30
-22.32
-18.13
-12.98
-7.25
-1.41
3.92
8.20
11.11
12.70
13.39
13.78
14.35
15.27
16.32
17.14
17.53
17.55
17.55
17.86
18.56
19.40
20.01
20.04
19.42
18.42
17.40
16.62
16.12
15.70
15.11
14.27
13.28
12.42
11.91
11.81
12.02
12.30
12.35
11.98
11.18
10.07
8.97
8.20
8.01
8.46
9.41
10.54
11.49
11.96
11.84
11.23
10.33
9.36
8.45
7.61
6.74
5.73
4.59
3.42
2.40
1.64
1.08
0.46
-0.64
-2.60
-5.61
-9.51
-13.91
-18.30
-22.32
-25.97
-29.46
-33.19
-37.41
-42.08
-46.81
-51.04
-54.20
-55.92
-55.93
-54.00
-49.95
-43.84
-36.27
-28.38
-21.66
-17.35
-15.83
-16.52
-18.11
-19.30
-19.42
-18.72
-18.12
-18.56
-20.40
-23.17
-25.75
-26.90
-25.97
-23.17
