1544106032.00
64.000000
-0.00
-0.00
-0.00
-0.00
-0.00
-0.00
-0.00
-0.00
-0.00
-0.00
0.00
0.01
0.01
-0.00
-0.03
-0.05
-0.05
0.00
0.13
0.36
0.66
1.01
1.37
1.72
2.06
2.40
2.79
3.24
3.80
4.42
5.06
5.66
6.20
6.68
7.15
7.68
8.31
9.14
10.09
11.04
11.88
12.56
13.14
13.76
14.65
15.96
17.91
20.32
22.90
25.38
27.58
29.57
31.68
34.32
37.81
42.54
48.15
54.10
59.83
64.97
69.58
74.14
79.34
85.71
93.76
103.00
112.62
121.73
129.77
136.75
143.30
150.75
157.77
166.64
177.95
191.79
206.97
220.57
228.25
225.36
208.53
176.87
132.76
80.05
23.07
-34.94
-92.44
-149.16
-205.23
-260.37
-313.74
-363.87
-409.83
-450.91
-486.50
-515.74
-537.23
-549.22
-549.96
-538.37
-514.21
-478.68
-433.88
-382.45
-327.02
-269.84
-212.63
-156.65
-102.93
-52.33
-5.85
35.67
71.54
101.50
125.70
144.62
158.99
169.50
176.78
181.22
183.10
182.66
180.16
175.95
170.44
164.04
157.09
149.84
142.42
134.91
127.35
119.79
112.28
104.90
97.73
90.80
84.16
77.82
71.79
66.08
60.71
55.68
51.00
46.68
42.72
39.11
35.84
32.91
30.31
28.04
26.09
24.47
23.16
22.15
21.44
21.01
20.85
20.93
21.24
21.77
22.51
23.45
24.57
25.84
27.23
28.66
30.04
31.28
32.20
32.67
32.52
31.62
29.88
27.24
23.73
19.41
14.42
8.98
3.33
-2.27
-7.55
-12.29
-16.30
-19.45
-21.68
-23.00
-23.46
-23.19
-22.30
-20.93
-19.23
-17.30
-15.24
-13.08
-10.86
-8.61
-6.34
-4.06
-1.76
0.58
2.98
5.44
8.00
10.69
13.47
16.31
19.22
22.19
25.24
28.41
31.72
35.23
39.03
43.01
47.12
51.35
55.70
60.17
64.82
69.68
74.84
80.40
86.20
92.13
98.14
104.18
110.24
116.29
122.35
128.46
134.68
140.70
146.27
151.18
155.16
157.91
159.03
157.94
153.78
148.16
141.62
134.50
127.04
119.41
111.74
104.17
96.81
89.82
83.37
77.27
71.42
65.76
60.27
54.98
49.91
45.10
40.62
36.56
32.76
29.12
25.63
22.30
19.19
16.34
13.78
11.54
9.64
7.91
6.28
4.71
3.23
1.87
0.65
-0.43
-1.42
-2.41
-3.54
-4.91
-6.51
-8.25
-10.02
-11.72
-13.38
-15.11
-17.12
-19.64
-22.76
-26.39
-30.27
-34.06
-37.54
-40.71
-43.85
-47.43
-51.92
-57.52
-64.10
-71.15
-78.07
-84.42
-90.22
-95.98
-102.54
-110.70
-120.85
-132.73
-145.62
-158.55
-170.85
-182.36
-193.56
-205.33
-218.74
-234.78
-254.16
-276.94
-302.11
-327.31
-349.05
-363.50
-367.79
-361.13
-345.20
-323.56
-300.26
-278.22
-258.43
-240.02
-221.29
-200.88
-178.48
-154.86
-131.22
-108.56
-87.30
-67.42
-48.88
-31.95
-17.35
-5.88
2.07
6.87
9.62
11.67
13.98
16.70
19.20
20.48
19.88
17.51
14.28
11.47
10.11
10.50
12.04
13.51
13.47
10.87
5.35
-2.46
-11.00
-18.11
-21.56
-19.89
-12.97
-2.24
9.71
20.00
26.56
28.74
27.44
24.53
21.98
21.17
22.44
25.30
28.90
32.51
35.89
39.25
43.01
47.41
52.23
56.77
60.10
61.52
60.81
58.34
54.81
50.92
47.12
43.48
39.94
36.49
33.30
30.67
28.87
27.97
27.71
27.61
27.12
25.84
23.69
20.84
17.66
14.56
11.86
9.73
8.22
7.33
7.01
7.14
7.50
7.78
7.63
6.87
5.57
4.12
3.08
3.01
4.20
6.54
9.51
12.39
14.44
15.21
14.60
12.91
10.65
8.38
6.49
5.06
3.89
2.53
0.50
-2.47
-6.19
-9.92
-12.47
-12.59
-9.50
-3.26
5.12
13.98
21.66
27.01
29.61
29.68
27.73
24.36
20.09
15.49
11.21
7.87
5.91
5.37
5.80
6.46
6.60
5.77
3.98
1.64
-0.68
-2.46
-3.41
-3.50
-2.84
-1.51
0.46
3.09
6.37
10.19
14.32
18.44
22.19
25.28
27.44
28.44
28.11
26.44
23.68
20.40
17.40
15.52
15.36
17.10
20.33
24.22
27.70
29.82
29.99
28.20
24.87
20.68
16.31
12.31
8.97
6.37
4.41
2.82
1.32
-0.36
-2.38
-4.61
-6.75
-8.38
-9.13
-8.91
-7.95
-6.78
-6.03
-6.19
-7.44
-9.55
-12.00
-14.19
-15.56
-15.88
-15.20
-13.82
-12.12
-10.51
-9.24
-8.45
-8.13
-8.10
-8.15
-8.05
-7.69
-7.14
-6.61
-6.34
-6.45
-6.91
-7.50
-8.00
-8.25
-8.26
-8.12
-8.07
-8.36
-9.13
-10.39
-11.94
-13.43
-14.40
-14.50
-13.61
-11.90
-9.78
-7.74
-6.15
-5.27
-5.17
-5.86
-7.24
-9.04
-10.79
-11.84
-11.55
-9.50
-5.77
-0.89
4.29
8.88
12.31
14.43
15.47
15.86
15.92
15.79
15.40
14.61
13.38
11.80
10.07
8.45
7.10
6.08
5.36
4.92
4.76
4.90
5.37
6.07
6.85
7.47
7.75
7.65
7.26
6.77
6.37
6.10
5.83
5.33
4.41
3.01
1.31
-0.33
-1.57
-2.18
-2.08
-1.34
-0.08
1.59
3.62
5.91
8.31
10.58
12.47
13.80
14.56
14.85
14.93
15.02
15.22
15.46
15.60
15.45
14.85
13.76
12.26
10.48
8.58
6.69
4.92
3.29
1.85
0.57
-0.51
-1.38
-2.04
-2.49
-2.79
-3.01
-3.26
-3.65
-4.24
-4.99
-5.79
-6.48
-6.83
-6.72
-6.11
-5.11
-3.88
-2.54
-1.13
0.38
2.06
3.94
5.98
8.09
10.15
12.07
13.77
15.16
16.20
16.81
16.92
16.54
15.73
14.65
13.48
12.42
11.61
11.10
10.85
10.75
10.76
10.81
10.95
11.16
11.42
11.60
11.57
11.18
10.37
9.17
7.66
5.94
4.11
2.21
0.29
-1.63
-3.51
-5.25
-6.68
-7.65
-7.94
-7.40
-6.02
-3.95
-1.49
1.01
3.17
4.73
5.55
5.67
5.20
4.31
3.20
2.03
0.97
0.17
-0.21
-0.06
0.64
1.78
3.17
4.55
5.71
6.56
7.17
7.70
8.26
8.89
9.48
9.82
9.74
9.18
8.24
7.08
5.93
4.89
3.97
3.06
2.02
0.75
-0.76
-2.38
-4.04
-5.65
-7.18
-8.60
-9.82
-10.63
-10.77
-10.00
-8.25
-5.75
-2.89
-0.16
2.06
3.61
4.49
4.82
4.74
4.37
3.83
3.31
3.00
3.07
3.56
4.37
5.31
6.16
6.84
7.29
7.56
7.68
7.67
7.50
7.14
6.57
5.77
4.74
3.54
2.28
1.07
0.04
-0.74
-1.31
-1.82
-2.51
-3.57
-5.07
-6.90
-8.74
-10.18
-10.88
-10.63
-9.46
-7.58
-5.33
-3.01
-0.87
0.96
2.40
3.43
4.05
4.29
4.22
3.92
3.51
3.05
2.65
2.39
2.37
2.65
3.21
3.97
4.72
5.28
5.50
5.41
5.13
4.84
4.64
4.52
4.30
3.86
3.13
2.17
1.12
0.13
-0.85
-1.96
-3.44
-5.46
-7.97
-10.64
-12.95
-14.38
-14.52
-13.30
-10.91
-7.81
-4.53
-1.56
0.72
2.11
2.59
2.31
1.50
0.52
-0.35
-0.81
-0.73
-0.07
1.10
2.63
4.35
6.11
7.79
9.33
10.69
11.85
12.79
13.46
13.82
13.82
13.41
12.62
11.41
9.84
7.93
5.77
3.47
1.16
-0.99
-2.84
-4.25
-5.18
-5.65
-5.83
-5.94
-6.20
-6.75
-7.57
-8.47
-9.17
-9.35
-8.84
-7.59
-5.71
-3.40
-0.96
1.32
3.19
4.42
4.95
4.91
4.56
4.28
4.44
5.24
6.66
8.48
10.34
11.86
12.77
12.96
12.54
11.72
10.80
10.03
9.52
9.21
8.97
8.64
8.11
7.39
6.50
5.47
4.33
3.08
1.81
0.66
-0.12
-0.34
0.11
1.10
2.41
3.67
4.57
4.82
4.27
2.91
0.84
-1.68
-4.30
-6.61
-8.24
-8.94
-8.63
-7.42
-5.58
-3.46
-1.39
0.33
1.54
2.21
2.47
2.52
2.57
2.76
3.12
3.61
4.14
4.64
5.06
5.40
5.63
5.73
5.69
5.55
5.38
5.21
5.05
4.82
4.47
3.95
3.34
2.77
2.36
2.16
2.11
2.09
1.97
1.70
1.30
0.83
0.36
-0.07
-0.43
-0.77
-1.18
-1.80
-2.81
-4.32
-6.31
-8.54
-10.62
-12.06
-12.52
-11.86
-10.21
-7.89
-5.31
-2.83
-0.73
0.85
1.88
2.43
2.62
2.57
2.40
2.17
1.93
1.73
1.62
1.68
1.94
2.43
3.09
3.81
4.52
5.16
5.70
6.14
6.45
6.55
6.37
5.79
4.78
3.43
1.90
0.40
-0.89
-1.93
-2.73
-3.41
-4.07
-4.76
-5.50
-6.25
-7.00
-7.79
-8.64
-9.52
-10.30
-10.76
-10.66
-9.85
-8.32
-6.21
-3.80
-1.43
0.61
2.12
3.02
3.36
3.24
2.75
2.00
1.04
0.01
-0.86
-1.29
-1.08
-0.27
0.85
1.84
2.45
2.74
3.02
3.60
4.54
5.51
6.04
5.80
4.89
3.71
2.70
2.04
1.53
0.91
0.04
-0.91
-1.63
-2.00
-2.20
-2.65
-3.68
-5.27
-7.04
-8.43
-8.99
-8.62
-7.44
-5.79
-3.91
-2.02
-0.30
1.11
2.06
2.54
2.66
2.63
2.66
2.82
3.04
3.19
3.18
3.02
2.82
2.68
2.63
2.67
2.77
2.89
3.06
3.25
3.44
3.58
3.61
3.58
3.55
3.59
3.67
3.67
3.42
2.80
1.82
0.61
-0.60
-1.64
-2.44
-3.07
-3.70
-4.53
-5.64
-6.99
-8.31
-9.27
-9.51
-8.83
-7.22
-4.94
-2.39
0.05
2.06
3.48
4.26
4.42
4.05
3.30
2.40
1.62
1.17
1.14
1.42
1.86
2.30
2.73
3.25
3.96
4.86
5.85
6.74
7.38
7.72
7.78
7.58
7.10
6.27
5.08
3.58
1.96
0.39
-0.99
-2.16
-3.10
-3.77
-4.14
-4.17
-3.91
-3.49
-3.24
-3.39
-4.14
-5.52
-7.37
-9.35
-11.06
-12.15
-12.35
-11.61
-10.07
-8.03
-5.81
-3.70
-1.93
-0.64
0.13
0.45
0.46
0.34
0.23
0.20
0.25
0.34
0.48
0.74
1.19
1.88
2.76
3.68
4.49
5.12
5.53
5.76
5.80
5.63
5.18
4.44
3.43
2.26
1.04
-0.11
-1.12
-1.94
-2.54
-2.89
-2.99
-2.89
-2.72
-2.69
-3.00
-3.79
-5.02
-6.45
-7.68
-8.29
-7.98
-6.67
-4.56
-2.02
0.54
2.76
4.46
5.58
6.18
6.37
6.27
5.97
5.61
5.27
5.05
4.95
4.96
5.02
5.17
5.44
5.86
6.43
7.07
7.64
7.97
7.98
7.66
7.06
6.18
5.01
3.55
1.85
0.04
-1.64
-2.97
-3.84
-4.21
-4.24
-4.11
-4.04
-4.24
-4.83
-5.87
-7.32
-9.00
-10.61
-11.83
-12.37
-12.06
-10.95
-9.18
-7.03
-4.81
-2.84
-1.35
-0.50
-0.28
-0.56
-1.18
-1.94
-2.69
-3.28
-3.56
-3.39
-2.65
-1.32
0.42
2.27
3.89
5.02
5.58
5.69
5.53
5.26
4.91
4.46
3.83
3.05
2.16
1.25
0.40
-0.37
-1.03
-1.56
-1.97
-2.25
-2.45
-2.60
-2.75
-2.99
-3.37
-4.00
-4.90
-6.00
-7.15
-8.01
-8.29
-7.73
-6.34
-4.32
-2.07
0.05
1.75
2.96
3.73
4.19
4.43
4.50
4.39
4.12
3.79
3.54
3.55
3.90
4.56
5.35
6.09
6.62
6.83
6.76
6.46
6.07
5.66
5.28
4.94
4.58
4.13
3.49
2.63
1.58
0.46
-0.58
-1.42
-2.05
-2.49
-2.79
-3.01
-3.21
-3.45
-3.85
-4.52
-5.50
-6.65
-7.70
-8.24
-7.97
-6.77
-4.82
-2.54
-0.40
1.24
2.26
2.71
2.77
2.59
2.28
1.86
1.37
0.86
0.44
0.23
0.28
0.66
1.38
2.41
3.70
5.15
6.62
7.91
8.83
9.25
9.13
8.51
7.51
6.29
5.00
3.82
2.84
2.07
1.48
0.92
0.25
-0.62
-1.65
-2.72
-3.64
-4.29
-4.68
-4.97
-5.39
-6.15
-7.30
-8.68
-9.93
-10.65
-10.45
-9.17
-6.89
-3.99
-0.95
1.69
3.60
4.63
4.85
4.48
3.78
2.97
2.24
1.71
1.43
1.41
1.65
2.09
2.66
3.34
4.03
4.64
5.06
5.17
4.94
4.41
3.69
2.92
2.21
1.57
1.03
0.56
0.14
-0.20
-0.50
-0.78
-1.13
-1.58
-2.16
-2.81
-3.51
-4.25
-5.09
-6.09
-7.24
-8.39
-9.29
-9.63
-9.16
-7.85
-5.86
-3.52
-1.18
0.91
2.67
4.14
5.36
6.31
6.85
6.85
6.33
5.54
4.81
4.47
4.62
5.10
5.57
5.71
5.39
4.74
4.01
3.45
3.15
3.07
3.04
2.90
2.54
1.91
1.05
-0.02
-1.18
-2.30
-3.24
-3.90
-4.27
-4.53
-4.91
-5.64
-6.85
-8.44
-10.11
-11.45
-12.08
-11.79
-10.63
-8.77
-6.50
-4.09
-1.71
0.49
2.39
3.84
4.71
4.91
4.45
3.50
2.29
1.07
0.03
-0.70
-1.11
-1.19
-0.97
-0.44
0.37
1.36
2.37
3.18
3.60
3.57
3.16
2.52
1.83
1.18
0.56
-0.12
-0.90
-1.76
-2.60
-3.28
-3.71
-3.95
-4.11
-4.33
-4.73
-5.38
-6.27
-7.31
-8.27
-8.81
-8.60
-7.45
-5.38
-2.72
0.06
2.52
4.39
5.63
6.36
6.72
6.78
6.59
6.17
5.63
5.14
4.82
4.71
4.71
4.68
4.53
4.26
3.96
3.76
3.73
3.85
4.06
4.30
4.53
4.74
4.85
4.79
4.41
3.65
2.55
1.27
0.06
-0.88
-1.48
-1.81
-2.07
-2.43
-3.03
-3.93
-5.11
-6.46
-7.82
-8.91
-9.45
-9.19
-8.04
-6.11
-3.67
-1.09
1.25
3.09
4.28
4.79
4.70
4.15
3.34
2.47
1.72
1.19
0.95
1.00
1.34
1.90
2.65
3.45
4.24
4.95
5.58
6.14
6.65
7.04
7.20
7.02
6.45
5.56
4.51
3.45
2.46
1.57
0.72
-0.07
-0.81
-1.44
-1.98
-2.52
-3.27
-4.43
-6.08
-8.11
-10.16
-11.76
-12.46
-12.04
-10.52
-8.21
-5.51
-2.83
-0.43
1.55
3.08
4.14
4.71
4.77
4.36
3.62
2.77
2.08
1.75
1.87
2.39
3.15
3.99
4.77
5.43
5.98
6.46
6.91
7.26
7.45
7.36
6.94
6.14
5.03
3.71
2.35
1.13
0.18
-0.44
-0.82
-1.18
-1.75
-2.72
-4.09
-5.68
-7.16
-8.17
-8.43
-7.81
-6.36
-4.30
-1.92
0.46
2.62
4.37
5.63
6.40
6.70
6.60
6.20
5.64
5.05
4.56
4.23
3.99
3.76
3.43
2.97
2.39
1.75
1.08
0.42
-0.19
-0.69
-0.99
-1.13
-1.20
-1.35
-1.79
-2.57
-3.61
-4.67
-5.48
-5.85
-5.86
-5.72
-5.75
-6.21
-7.22
-8.69
-10.33
-11.76
-12.58
-12.51
-11.44
-9.49
-6.96
-4.25
-1.75
0.25
1.60
2.26
2.29
1.83
1.08
0.25
-0.41
-0.72
-0.58
-0.03
0.86
1.93
3.05
4.14
5.13
5.98
6.69
7.24
7.61
7.80
7.78
7.57
7.14
6.50
5.67
4.66
3.52
2.33
1.21
0.29
-0.40
-0.90
-1.37
-2.03
-3.10
-4.66
-6.65
-8.78
-10.66
-11.86
-12.10
-11.32
-9.71
-7.61
-5.39
-3.35
-1.62
-0.24
0.79
1.44
1.68
1.50
0.98
0.28
-0.42
-0.97
-1.31
-1.43
-1.39
-1.30
-1.26
-1.33
-1.54
-1.77
-1.77
-1.29
-0.09
1.83
4.15
6.32
7.67
7.75
6.51
4.36
2.04
0.27
-0.57
-0.63
-0.43
-0.56
-1.35
-2.68
-4.17
-5.37
-6.15
-6.66
-7.19
-7.88
-8.50
-8.57
-7.65
-5.61
-2.86
-0.12
1.92
2.98
3.33
3.53
4.12
5.31
6.87
8.34
9.34
9.76
9.85
9.97
10.41
11.21
12.20
13.06
13.49
13.29
12.42
10.97
9.14
7.20
5.33
3.62
2.02
0.41
-1.29
-3.03
-4.71
-6.20
-7.38
-8.21
-8.64
-8.71
-8.49
-8.18
-8.10
-8.50
-9.46
-10.80
-12.03
-12.64
-12.26
-10.79
-8.45
-5.57
-2.43
0.74
3.81
6.61
8.93
10.49
11.06
10.64
9.37
7.65
5.94
4.61
3.85
3.60
3.65
3.75
3.74
3.66
3.63
3.78
4.12
4.51
4.71
4.51
3.86
2.80
1.55
0.31
-0.77
-1.62
-2.30
-2.92
-3.61
-4.48
-5.55
-6.68
-7.62
-8.04
-7.72
-6.58
-4.84
-2.88
-1.06
0.39
1.42
2.16
2.73
3.16
3.42
3.50
3.48
3.50
3.69
4.02
4.31
4.34
4.02
3.44
2.86
2.58
2.73
3.18
3.67
3.93
3.78
3.25
2.49
1.66
0.88
0.09
-0.78
-1.78
-2.94
-4.25
-5.65
-7.16
-8.75
-10.33
-11.66
-12.41
-12.22
-10.88
-8.45
-5.33
-2.10
0.61
2.42
3.20
3.19
2.76
2.29
2.04
2.10
2.40
2.81
3.24
3.65
4.08
4.60
5.23
5.97
6.71
7.32
7.67
7.71
7.42
6.90
6.26
5.59
4.91
4.21
3.43
2.58
1.70
0.89
0.24
-0.24
-0.60
-1.01
-1.66
-2.68
-4.09
-5.73
-7.30
-8.46
-8.88
-8.41
-7.10
-5.14
-2.83
-0.50
1.55
3.13
4.13
4.56
4.57
4.37
4.20
4.19
4.38
4.65
4.84
4.84
4.65
4.39
4.22
4.26
4.51
4.94
5.43
5.90
6.31
6.66
6.94
7.13
7.18
7.08
6.81
6.39
5.83
5.11
4.19
3.11
1.89
0.62
-0.57
-1.57
-2.32
-2.87
-3.32
-3.86
-4.66
-5.84
-7.36
-9.05
-10.62
-11.71
-11.99
-11.27
-9.59
-7.18
-4.43
-1.78
0.48
2.18
3.35
4.11
4.56
4.75
4.67
4.32
3.76
3.14
2.66
2.43
2.49
2.74
3.00
3.13
3.07
2.90
2.71
2.56
2.45
2.29
1.98
1.48
0.80
0.03
-0.74
-1.46
-2.09
-2.62
-3.00
-3.25
-3.42
-3.62
-4.03
-4.74
-5.71
-6.74
-7.54
-7.82
-7.40
-6.28
-4.58
-2.57
-0.52
1.32
2.79
3.83
4.46
4.70
4.64
4.36
3.92
3.45
3.01
2.70
2.56
2.59
2.81
3.17
3.65
4.18
4.71
5.13
5.34
5.28
4.90
4.16
3.08
1.71
0.18
-1.37
-2.73
-3.78
-4.44
-4.75
-4.83
-4.89
-5.14
-5.74
-6.74
-8.05
-9.46
-10.63
-11.20
-10.94
-9.76
-7.86
-5.62
-3.44
-1.68
-0.43
0.36
0.87
1.26
1.57
1.73
1.67
1.40
1.04
0.81
0.87
1.24
1.83
2.46
2.99
3.39
3.74
4.12
4.57
4.99
5.19
5.03
4.42
3.42
2.15
0.73
-0.72
-2.12
-3.40
-4.42
-5.05
-5.25
-5.10
-4.84
-4.81
-5.28
-6.33
-7.76
-9.22
-10.27
-10.55
-9.88
-8.31
-6.03
-3.39
-0.77
1.51
3.23
4.33
4.86
4.99
4.91
4.77
4.70
4.75
4.94
5.26
5.67
6.07
6.33
6.35
6.08
5.59
5.04
4.63
4.51
4.65
4.91
5.09
5.03
4.66
4.04
3.30
2.56
1.88
1.29
0.77
0.32
-0.06
-0.38
-0.67
-1.04
-1.64
-2.55
-3.81
-5.24
-6.49
-7.16
-6.89
-5.55
-3.30
-0.57
2.13
4.37
5.93
6.79
7.06
6.93
6.54
5.95
5.27
4.58
3.97
3.53
3.33
3.37
3.61
4.01
4.49
5.00
5.48
5.86
6.10
6.15
5.95
5.49
4.78
3.86
2.82
1.75
0.72
-0.22
-1.07
-1.82
-2.52
-3.21
-4.00
-4.98
-6.20
-7.66
-9.28
-10.94
-12.45
-13.68
-14.47
-14.73
-14.39
-13.47
-12.02
-10.21
-8.28
-6.46
-4.91
-3.72
-2.86
-2.27
-1.94
-1.88
-2.13
-2.69
-3.52
-4.50
-5.45
-6.17
-6.45
-6.14
-5.16
-3.54
-1.41
0.99
3.33
5.28
6.52
6.93
6.51
5.45
4.01
2.52
1.21
0.16
-0.65
-1.33
-2.04
-2.89
-3.94
-5.17
-6.46
-7.58
-8.33
-8.47
-7.86
-6.48
-4.46
-2.07
0.39
2.53
4.10
4.95
5.18
5.05
4.90
4.99
5.42
6.08
6.72
7.11
7.09
6.65
5.82
4.66
3.24
1.66
0.10
-1.20
-2.03
-2.32
-2.15
-1.81
-1.59
-1.73
-2.31
-3.15
-4.02
-4.65
-4.92
-4.96
-5.02
-5.47
-6.56
-8.38
-10.74
-13.26
-15.49
-16.97
-17.35
-16.49
-14.40
-11.30
-7.53
-3.46
0.51
4.05
6.92
9.04
10.41
11.13
11.38
11.33
11.15
10.94
10.77
10.67
10.65
10.76
11.00
11.37
11.80
12.17
12.31
12.14
11.62
10.85
10.01
9.26
8.71
8.35
8.11
7.87
7.52
7.01
6.25
5.23
3.95
2.48
1.00
-0.27
-1.13
-1.46
-1.23
-0.55
0.43
1.52
2.54
3.37
3.96
4.34
4.57
4.76
4.91
4.99
4.87
4.44
3.67
2.66
1.61
0.75
0.29
0.33
0.82
1.62
2.48
3.20
3.63
3.77
3.74
3.63
3.55
3.49
3.41
3.25
2.92
2.34
1.48
0.34
-1.00
-2.47
-3.94
-5.31
-6.54
-7.64
-8.67
-9.67
-10.59
-11.31
-11.64
-11.40
-10.52
-9.02
-7.09
-4.98
-3.01
-1.39
-0.27
0.36
0.67
0.86
1.17
1.69
2.44
3.23
3.84
4.08
3.91
3.45
2.92
2.58
2.60
3.02
3.73
4.55
5.33
5.95
6.34
6.46
6.27
5.74
4.90
3.83
2.68
1.60
0.65
-0.20
-1.10
-2.24
-3.76
-5.69
-7.93
-10.28
-12.49
-14.31
-15.50
-15.86
-15.30
-13.84
-11.66
-9.06
-6.42
-4.08
-2.23
-0.90
0.06
0.87
1.68
2.49
3.15
3.42
3.15
2.35
1.20
-0.03
-1.05
-1.70
-1.99
-1.98
-1.78
-1.45
-0.98
-0.41
0.16
0.52
0.49
-0.05
-1.09
-2.44
-3.83
-5.03
-5.92
-6.53
-7.02
-7.60
-8.41
-9.42
-10.43
-11.15
-11.29
-10.71
-9.46
-7.72
-5.77
-3.81
-1.97
-0.35
0.96
1.86
2.30
2.33
2.13
1.95
1.94
2.15
2.46
2.73
2.89
3.00
3.22
3.66
4.34
5.09
5.67
5.86
5.58
4.85
3.81
2.57
1.30
0.07
-1.02
-1.91
-2.56
-2.97
-3.17
-3.29
-3.46
-3.86
-4.60
-5.77
-7.23
-8.73
-9.89
-10.29
-9.72
-8.19
-5.95
-3.41
-0.95
1.16
2.73
3.73
4.14
4.02
3.53
2.89
2.35
2.11
2.18
2.48
2.86
3.21
3.54
3.90
4.32
4.76
5.10
5.26
5.21
5.05
4.88
4.76
4.66
4.46
4.02
3.25
2.19
0.99
-0.13
-0.99
-1.49
-1.70
-1.82
-2.11
-2.83
-4.07
-5.73
-7.51
-8.99
-9.79
-9.65
-8.57
-6.68
-4.31
-1.79
0.58
2.60
4.20
5.43
6.39
7.17
7.81
8.30
8.61
8.75
8.74
8.65
8.52
8.42
8.35
8.39
8.62
9.10
9.83
10.63
11.27
11.52
11.25
10.52
9.50
8.41
7.37
6.42
5.50
4.56
3.61
2.68
1.83
1.04
0.26
-0.57
-1.49
-2.48
-3.50
-4.54
-5.65
-6.92
-8.35
-9.82
-11.05
-11.67
-11.37
-10.04
-7.88
-5.32
-2.88
-0.98
0.23
0.84
1.09
1.23
1.39
1.61
1.85
2.11
2.40
2.76
3.16
3.56
3.87
4.09
4.26
4.48
4.80
5.23
5.64
5.92
5.97
5.79
5.39
4.79
4.05
3.16
2.14
1.02
-0.14
-1.26
-2.25
-3.05
-3.64
-4.09
-4.53
-5.13
-6.03
-7.25
-8.67
-10.03
-11.01
-11.35
-10.93
-9.75
-7.98
-5.84
-3.57
-1.42
0.36
1.61
2.30
2.51
2.47
2.40
2.44
2.62
2.83
2.95
2.95
2.91
2.96
3.18
3.53
3.90
4.13
4.13
3.95
3.71
3.49
3.35
3.19
2.86
2.24
1.30
0.17
-0.96
-1.91
-2.57
-2.95
-3.19
-3.49
-4.02
-4.89
-6.03
-7.25
-8.25
-8.70
-8.35
-7.17
-5.36
-3.29
-1.32
0.24
1.27
1.83
2.05
2.09
2.07
2.04
2.04
2.04
2.07
2.10
2.19
2.34
2.62
3.02
3.52
4.02
4.44
4.71
4.82
4.82
4.76
4.63
4.36
3.85
2.99
1.75
0.24
-1.39
-2.96
-4.41
-5.73
-7.01
-8.33
-9.70
-11.05
-12.21
-12.94
-12.99
-12.17
-10.44
-7.92
-4.90
-1.75
1.13
3.49
5.20
6.24
6.71
6.68
6.23
5.44
4.45
3.46
2.65
2.12
1.86
1.75
1.70
1.68
1.76
2.04
2.51
3.06
3.43
3.40
2.89
2.05
1.14
0.41
-0.08
-0.40
-0.77
-1.30
-1.97
-2.61
-3.04
-3.26
-3.46
-3.98
-5.08
-6.79
-8.79
-10.57
-11.61
-11.60
-10.59
-8.89
-6.92
-4.98
-3.22
-1.61
-0.10
1.29
2.45
3.25
3.58
3.51
3.19
2.83
2.60
2.57
2.76
3.14
3.72
4.50
5.44
6.47
7.44
8.22
8.72
8.90
8.81
8.50
8.02
7.43
6.73
5.93
5.02
4.02
2.96
1.95
1.10
0.51
0.24
0.21
0.28
0.27
0.02
-0.51
-1.34
-2.40
-3.49
-4.39
-4.83
-4.59
-3.62
-2.02
-0.09
1.85
3.55
4.86
5.74
6.20
6.26
5.96
5.36
4.65
3.99
3.53
3.30
3.26
3.34
3.53
3.90
4.52
5.39
6.36
7.21
7.71
7.71
7.19
6.25
5.03
3.68
2.32
1.04
-0.04
-0.86
-1.40
-1.74
-2.01
-2.32
-2.77
-3.39
-4.11
-4.79
-5.39
-5.86
-6.32
-6.92
-7.79
-8.95
-10.26
-11.44
-12.17
-12.21
-11.46
-9.99
-7.98
-5.69
-3.37
-1.27
0.40
1.49
1.95
1.84
1.32
0.58
-0.21
-0.92
-1.41
-1.55
-1.25
-0.45
0.77
2.23
3.70
4.95
5.87
6.44
6.74
6.83
6.74
6.46
5.98
5.29
4.42
3.45
2.48
1.56
0.76
0.10
-0.42
-0.80
-1.09
-1.37
-1.77
-2.40
-3.34
-4.55
-5.89
-7.10
-7.87
-7.98
-7.34
-6.08
-4.45
-2.74
-1.20
0.05
1.02
1.75
2.31
2.68
2.83
2.69
2.30
1.74
1.15
0.69
0.42
0.39
0.55
0.85
1.18
1.47
1.65
1.64
1.44
1.07
0.56
-0.03
-0.70
-1.43
-2.20
-2.99
-3.75
-4.41
-5.00
-5.59
-6.30
-7.26
-8.49
-9.89
-11.24
-12.27
-12.69
-12.31
-11.10
-9.21
-6.90
-4.54
-2.45
-0.87
0.12
0.58
0.69
0.66
0.61
0.59
0.61
0.67
0.81
1.10
1.61
2.32
3.17
4.01
4.73
5.21
5.41
5.31
4.97
4.46
3.91
3.42
3.03
2.67
2.23
1.58
0.74
-0.20
-1.04
-1.68
-2.08
-2.36
-2.63
-3.00
-3.56
-4.36
-5.44
-6.74
-8.11
-9.22
-9.69
-9.22
-7.73
-5.49
-2.91
-0.48
1.49
2.88
3.76
4.27
4.49
4.50
4.30
3.96
3.55
3.18
2.93
2.80
2.79
2.91
3.18
3.67
4.42
5.34
6.24
6.93
7.23
7.10
6.62
5.94
5.24
4.59
4.00
3.38
2.68
1.88
1.04
0.23
-0.43
-0.93
-1.31
-1.71
-2.28
-3.10
-4.17
-5.36
-6.46
-7.26
-7.52
-7.16
-6.17
-4.65
-2.78
-0.78
1.16
2.86
4.16
4.97
5.27
5.11
4.60
3.89
3.16
2.54
2.13
2.01
2.16
2.59
3.21
3.94
4.67
5.30
5.74
5.96
5.92
5.63
5.11
4.39
3.51
2.49
1.42
0.36
-0.58
-1.33
-1.88
-2.32
-2.76
-3.34
-4.12
-5.10
-6.20
-7.32
-8.37
-9.21
-9.74
-9.77
-9.15
-7.81
-5.78
-3.31
-0.72
1.61
3.42
4.59
5.14
5.18
4.82
4.14
3.20
2.10
0.95
-0.08
-0.80
-1.07
-0.88
-0.30
0.47
1.24
1.89
2.35
2.62
2.73
2.73
2.60
2.31
1.88
1.32
0.67
0.02
-0.56
-1.04
-1.46
-1.92
-2.61
-3.62
-4.98
-6.52
-7.96
-8.91
-9.05
-8.23
-6.49
-4.09
-1.39
1.23
3.38
4.84
5.47
5.35
4.65
3.63
2.51
1.43
0.45
-0.44
-1.15
-1.61
-1.73
-1.48
-0.96
-0.38
0.09
0.37
0.52
0.63
0.77
0.89
0.83
0.48
-0.22
-1.20
-2.25
-3.26
-4.14
-4.97
-5.88
-7.01
-8.40
-9.96
-11.44
-12.50
-12.75
-12.00
-10.23
-7.72
-4.88
-2.19
0.03
1.66
2.74
3.37
3.67
3.72
3.57
3.31
2.99
2.69
2.42
2.18
1.99
1.85
1.82
1.95
2.28
2.76
3.30
3.71
3.83
3.56
2.89
1.95
0.88
-0.21
-1.25
-2.24
-3.22
-4.17
-5.08
-5.97
-6.88
-7.87
-8.92
-9.85
-10.35
-10.02
-8.63
-6.20
-3.08
0.18
3.02
5.06
6.20
6.59
6.53
6.30
6.10
6.01
6.00
6.02
5.99
5.84
5.51
5.02
4.38
3.65
2.96
2.43
2.16
2.19
2.50
2.94
3.36
3.55
3.39
2.83
1.97
0.97
0.00
-0.78
-1.32
-1.66
-1.90
-2.21
-2.79
-3.71
-4.96
-6.31
-7.41
-7.88
-7.47
-6.08
-3.88
-1.17
1.64
4.17
6.08
7.22
7.56
7.28
6.70
6.13
5.82
5.77
5.87
5.91
5.82
5.62
5.47
5.51
5.81
6.31
6.86
7.24
7.31
7.03
6.47
5.75
5.00
4.24
3.45
2.52
1.42
0.18
-1.02
-2.04
-2.82
-3.46
-4.19
-5.16
-6.41
-7.83
-9.24
-10.47
-11.43
-12.01
-12.10
-11.54
-10.27
-8.38
-6.15
-3.95
-2.07
-0.65
0.38
1.17
1.81
2.28
2.51
2.45
2.18
1.85
1.63
1.57
1.67
1.86
2.12
2.44
2.87
3.40
3.97
4.47
4.80
4.90
4.78
4.40
3.75
2.81
1.63
0.34
-0.83
-1.67
-2.09
-2.19
-2.27
-2.68
-3.67
-5.26
-7.17
-8.95
-10.08
-10.21
-9.28
-7.49
-5.20
-2.81
-0.61
1.25
2.73
3.82
4.55
4.90
4.89
4.58
4.10
3.62
3.32
3.28
3.52
3.92
4.32
4.57
4.59
4.41
4.14
3.92
3.78
3.65
3.40
2.88
2.02
0.91
-0.32
-1.56
-2.75
-3.97
-5.34
-6.93
-8.68
-10.35
-11.60
-12.13
-11.75
-10.47
-8.52
-6.20
-3.80
-1.57
0.37
1.97
3.15
3.86
4.02
3.67
2.88
1.85
0.82
0.01
-0.46
-0.51
-0.19
0.43
1.22
2.05
2.77
3.24
3.39
3.20
2.75
2.10
1.37
0.60
-0.19
-1.06
-2.03
-3.10
-4.28
-5.50
-6.79
-8.18
-9.70
-11.26
-12.63
-13.38
-13.12
-11.64
-9.05
-5.81
-2.49
0.38
2.55
3.99
4.82
5.22
5.33
5.26
5.09
4.92
4.80
4.72
4.63
4.47
4.25
4.06
4.01
4.22
4.71
5.47
6.39
7.34
8.13
8.55
8.44
7.73
6.53
5.08
3.61
2.25
1.02
-0.20
-1.55
-3.11
-4.91
-6.93
-9.07
-11.22
-13.13
-14.47
-14.86
-14.02
-11.92
-8.77
-5.02
-1.17
2.31
5.14
7.18
8.45
9.04
9.12
8.90
8.59
8.35
8.28
8.41
8.71
9.18
9.79
10.49
11.14
11.54
11.49
10.92
9.96
8.88
7.96
7.34
6.90
6.34
5.31
3.71
1.65
-0.54
-2.54
-4.16
-5.43
-6.46
-7.40
-8.33
-9.25
-10.19
-11.16
-12.25
-13.42
-14.52
-15.19
-15.03
-13.82
-11.59
-8.75
-5.84
-3.34
-1.48
-0.18
0.80
1.73
2.76
3.84
4.86
5.73
6.45
7.09
7.72
8.36
8.97
9.50
9.88
10.08
10.07
9.83
9.40
8.81
8.12
7.32
6.38
5.20
3.73
1.99
0.11
-1.69
-3.21
-4.36
-5.11
-5.61
-6.00
-6.48
-7.19
-8.18
-9.40
-10.65
-11.61
-11.97
-11.48
-10.07
-7.85
-5.09
-2.13
0.68
3.06
4.85
5.99
6.49
6.43
5.97
5.27
4.56
4.01
3.76
3.88
4.35
5.09
5.96
6.81
7.52
8.03
8.26
8.22
7.89
7.28
6.42
5.33
4.07
2.67
1.20
-0.24
-1.50
-2.48
-3.16
-3.67
-4.26
-5.17
-6.54
-8.32
-10.23
-11.82
-12.63
-12.40
-11.02
-8.69
-5.76
-2.67
0.14
2.35
3.81
4.55
4.77
4.75
4.71
4.72
4.71
4.52
4.09
3.53
3.09
2.99
3.34
4.04
4.83
5.46
5.84
5.97
5.95
5.78
5.42
4.75
3.66
2.19
0.50
-1.18
-2.65
-3.76
-4.46
-4.81
-4.97
-5.18
-5.70
-6.72
-8.28
-10.22
-12.20
-13.78
-14.55
-14.20
-12.66
-10.10
-6.87
-3.44
-0.28
2.23
3.90
4.75
4.96
4.85
4.68
4.66
4.84
5.09
5.28
5.28
5.12
4.92
4.87
5.07
5.47
5.93
6.26
6.33
6.15
5.80
5.40
5.01
4.62
4.14
3.49
2.69
1.82
1.02
0.44
0.08
-0.17
-0.53
-1.23
-2.40
-3.99
-5.88
-7.81
-9.55
-10.90
-11.69
-11.75
-10.93
-9.21
-6.67
-3.61
-0.47
2.35
4.57
6.16
7.23
7.95
8.41
8.62
8.53
8.08
7.32
6.42
5.62
5.13
5.10
5.57
6.42
7.49
8.55
9.43
9.96
10.08
9.74
9.05
8.14
7.19
6.30
5.51
4.72
3.82
2.74
1.51
0.23
-0.94
-1.94
-2.77
-3.53
-4.36
-5.38
-6.65
-8.16
-9.86
-11.58
-13.05
-13.96
-14.01
-13.04
-11.11
-8.43
-5.40
-2.42
0.17
2.13
3.45
4.23
4.62
4.78
4.73
4.45
3.94
3.33
2.86
2.83
3.39
4.50
5.84
7.04
7.79
7.98
7.67
7.00
6.08
5.00
3.79
2.58
1.49
0.66
0.07
-0.37
-0.83
-1.40
-2.05
-2.63
-2.97
-3.01
-2.81
-2.65
-2.80
-3.45
-4.62
-6.14
-7.66
-8.78
-9.14
-8.57
-7.07
-4.82
-2.13
0.61
3.04
4.84
5.89
6.18
5.91
5.29
4.50
3.63
2.71
1.76
0.94
0.45
0.48
1.09
2.08
3.17
4.06
4.60
4.88
5.03
5.14
5.14
4.88
4.20
3.05
1.57
-0.01
-1.40
-2.41
-2.99
-3.26
-3.43
-3.78
-4.49
-5.60
-7.01
-8.52
-9.93
-11.05
-11.70
-11.74
-11.03
-9.54
-7.40
-4.92
-2.54
-0.64
0.54
1.04
1.09
0.99
0.92
0.97
1.11
1.29
1.53
1.85
2.32
2.90
3.52
4.03
4.34
4.43
4.36
4.23
4.09
3.91
3.58
2.98
2.03
0.74
-0.80
-2.47
-4.06
-5.39
-6.35
-6.95
-7.27
-7.51
-7.89
-8.53
-9.44
-10.46
-11.31
-11.68
-11.35
-10.22
-8.40
-6.07
-3.51
-0.97
1.31
3.17
4.55
5.39
5.75
5.74
5.49
5.15
4.84
4.60
4.47
4.49
4.66
5.02
5.52
6.07
6.54
6.79
6.78
6.59
6.33
6.10
5.86
5.49
4.81
3.75
2.36
0.82
-0.65
-1.87
-2.74
-3.25
-3.47
-3.58
-3.76
-4.20
-5.00
-6.14
-7.42
-8.59
-9.35
-9.47
-8.83
-7.39
-5.22
-2.48
0.59
3.58
6.09
7.83
8.69
8.81
8.54
8.20
7.98
7.87
7.74
7.46
7.03
6.59
6.35
6.45
6.89
7.54
8.20
8.68
8.91
8.90
8.66
8.21
7.51
6.50
5.17
3.58
1.85
0.13
-1.46
-2.85
-4.01
-4.94
-5.66
-6.23
-6.77
-7.47
-8.51
-10.01
-11.87
-13.80
-15.35
-16.07
-15.61
-13.93
-11.29
-8.14
-5.00
-2.26
-0.13
1.41
2.49
3.28
3.83
4.12
4.10
3.80
3.34
2.90
2.67
2.70
2.96
3.30
3.62
3.86
4.07
4.31
4.60
4.90
5.07
4.97
4.50
3.68
2.65
1.58
0.66
-0.06
-0.62
-1.16
-1.83
-2.65
-3.61
-4.62
-5.61
-6.56
-7.44
-8.17
-8.54
-8.35
-7.42
-5.76
-3.57
-1.21
1.02
2.94
4.45
5.56
6.23
6.40
6.04
5.19
4.04
2.83
1.85
1.34
1.39
2.00
2.99
4.14
5.16
5.84
6.06
5.79
5.11
4.17
3.05
1.85
0.66
-0.46
-1.44
-2.24
-2.87
-3.42
-3.99
-4.73
-5.73
-7.00
-8.46
-9.87
-10.91
-11.26
-10.74
-9.36
-7.34
-5.02
-2.75
-0.85
0.50
1.22
1.38
1.13
0.72
0.40
0.33
0.49
0.73
0.85
0.75
0.53
0.42
0.61
1.16
1.90
2.57
2.91
2.83
2.37
1.68
0.90
0.12
-0.62
-1.31
-1.96
-2.58
-3.21
-3.86
-4.55
-5.24
-5.92
-6.59
-7.37
-8.31
-9.39
-10.41
-10.97
-10.64
-9.16
-6.62
-3.44
-0.27
2.32
4.02
4.86
5.13
5.21
5.36
5.66
6.03
6.31
6.42
6.39
6.34
6.43
6.70
7.10
7.49
7.73
7.76
7.65
7.54
7.54
7.66
7.78
7.72
7.31
6.49
5.27
3.76
2.12
0.51
-0.90
-1.99
-2.75
-3.25
-3.70
-4.40
-5.58
-7.33
-9.49
-11.63
-13.21
-13.70
-12.80
-10.55
-7.32
-3.68
-0.23
2.59
4.56
5.72
6.23
6.28
6.03
5.59
5.03
4.40
3.79
3.34
3.18
3.42
4.10
5.13
6.30
7.32
7.89
7.86
7.30
6.46
5.64
5.05
4.70
4.41
3.93
3.12
2.04
0.86
-0.18
-0.95
-1.47
-1.93
-2.47
-3.20
-4.14
-5.26
-6.51
-7.81
-9.03
-9.97
-10.39
-10.12
-9.11
-7.50
-5.51
-3.43
-1.45
0.31
1.77
2.89
3.63
3.93
3.82
3.38
2.78
2.20
1.79
1.66
1.82
2.26
2.92
3.69
4.43
5.02
5.36
5.40
5.14
4.60
3.85
2.92
1.85
0.70
-0.47
-1.55
-2.44
-3.08
-3.47
-3.72
-3.94
-4.32
-5.02
-6.15
-7.65
-9.31
-10.70
-11.38
-10.99
-9.44
-6.99
-4.09
-1.25
1.18
3.09
4.52
5.59
6.34
6.67
6.51
5.85
4.86
3.80
2.89
2.24
1.87
1.71
1.76
2.02
2.50
3.13
3.72
4.06
4.00
3.57
2.91
2.18
1.47
0.75
-0.05
-0.97
-1.95
-2.89
-3.65
-4.25
-4.83
-5.59
-6.73
-8.26
-9.99
-11.57
-12.59
-12.70
-11.79
-10.01
-7.68
-5.18
-2.82
-0.76
0.94
2.29
3.24
3.76
3.83
3.56
3.09
2.67
2.47
2.58
2.97
3.52
4.09
4.54
4.82
4.88
4.75
4.48
4.15
3.82
3.55
3.29
2.99
2.54
1.87
0.96
-0.11
-1.20
-2.23
-3.08
-3.73
-4.27
-4.81
-5.48
-6.38
-7.53
-8.78
-9.89
-10.50
-10.26
-9.06
-6.96
-4.30
-1.57
0.77
2.40
3.21
3.28
2.86
2.23
1.67
1.34
1.27
1.34
1.38
1.25
0.90
0.52
0.35
0.68
1.59
2.95
4.43
5.70
6.54
6.94
7.03
6.96
6.82
6.57
6.09
5.30
4.23
3.01
1.83
0.84
0.10
-0.40
-0.74
-1.04
-1.43
-2.04
-2.99
-4.33
-5.96
-7.66
-9.11
-9.96
-9.98
-9.05
-7.31
-5.04
-2.60
-0.38
1.34
2.40
2.84
2.83
2.61
2.36
2.22
2.18
2.20
2.21
2.25
2.35
2.58
2.95
3.40
3.85
4.25
4.54
4.73
4.82
4.79
4.64
4.36
4.01
3.64
3.32
3.05
2.82
2.52
2.08
1.44
0.64
-0.19
-0.90
-1.36
-1.58
-1.69
-1.95
-2.63
-3.93
-5.81
-8.02
-10.12
-11.60
-12.07
-11.34
-9.53
-6.97
-4.15
-1.54
0.53
1.94
2.74
3.07
3.10
2.93
2.61
2.14
1.61
1.20
1.13
1.58
2.57
3.94
5.34
6.40
6.93
6.94
6.63
6.26
5.96
5.71
5.36
4.73
3.77
2.56
1.26
0.05
-0.96
-1.74
-2.33
-2.78
-3.13
-3.45
-3.84
-4.46
-5.44
-6.82
-8.45
-10.01
-11.07
-11.26
-10.45
-8.80
-6.69
-4.54
-2.65
-1.14
0.05
1.01
1.78
2.32
2.54
2.37
1.85
1.07
0.21
-0.53
-0.96
-0.98
-0.56
0.21
1.15
2.04
2.72
3.10
3.22
3.19
3.05
2.81
2.45
1.89
1.13
0.20
-0.84
-1.89
-2.93
-3.93
-4.88
-5.81
-6.75
-7.76
-8.89
-10.16
-11.51
-12.73
-13.53
-13.58
-12.71
-10.92
-8.45
-5.67
-2.94
-0.53
1.44
2.98
4.16
5.02
5.58
5.85
5.87
5.70
5.44
5.16
4.91
4.70
4.55
4.43
4.37
4.32
4.26
4.17
4.06
3.95
3.88
3.92
4.03
4.15
4.20
4.11
3.86
3.51
3.12
2.72
2.28
1.74
1.03
0.13
-0.97
-2.26
-3.71
-5.30
-6.99
-8.61
-9.91
-10.58
-10.37
-9.21
-7.23
-4.73
-2.11
0.27
2.19
3.58
4.54
5.20
5.68
6.03
6.26
6.34
6.23
5.92
5.49
5.05
4.74
4.74
5.13
5.90
6.89
7.85
8.52
8.73
8.45
7.81
6.97
6.08
5.18
4.22
3.15
2.00
0.83
-0.24
-1.17
-1.98
-2.71
-3.46
-4.24
-5.07
-5.97
-7.04
-8.35
-9.90
-11.52
-12.85
-13.48
-13.06
-11.53
-9.13
-6.29
-3.53
-1.23
0.41
1.37
1.76
1.76
1.52
1.20
0.89
0.63
0.43
0.27
0.16
0.16
0.33
0.72
1.31
2.02
2.72
3.33
3.80
4.15
4.40
4.57
4.64
4.59
4.36
3.93
3.31
2.52
1.63
0.71
-0.21
-1.14
-2.15
-3.36
-4.84
-6.53
-8.26
-9.76
-10.74
-10.97
-10.38
-9.00
-7.01
-4.57
-1.94
0.67
3.03
4.98
6.43
7.33
7.68
7.58
7.13
6.50
5.90
5.53
5.53
5.96
6.70
7.50
8.06
8.16
7.70
6.78
5.57
4.28
3.06
1.98
0.96
-0.09
-1.24
-2.55
-3.99
-5.48
-6.92
-8.18
-9.16
-9.87
-10.40
-10.90
-11.52
-12.27
-13.05
-13.60
-13.63
-12.94
-11.47
-9.35
-6.81
-4.17
-1.72
0.35
1.94
3.01
3.61
3.81
3.70
3.36
2.83
2.21
1.59
1.12
0.91
1.01
1.41
2.02
2.73
3.49
4.29
5.12
5.97
6.75
7.27
7.35
6.88
5.89
4.60
3.23
2.02
1.10
0.41
-0.12
-0.62
-1.19
-1.89
-2.82
-4.08
-5.75
-7.81
-10.02
-11.98
-13.22
-13.39
-12.35
-10.23
-7.36
-4.17
-1.04
1.73
3.97
5.53
6.44
6.76
6.68
6.43
6.21
6.16
6.32
6.67
7.20
7.88
8.68
9.51
10.20
10.58
10.55
10.11
9.39
8.51
7.64
6.76
5.83
4.79
3.61
2.38
1.22
0.23
-0.53
-1.07
-1.45
-1.70
-1.83
-1.87
-1.87
-1.94
-2.27
-3.02
-4.29
-6.04
-8.05
-9.98
-11.37
-11.81
-11.05
-9.12
-6.36
-3.24
-0.32
2.03
3.65
4.58
5.01
5.13
5.08
4.91
4.63
4.26
3.86
3.53
3.33
3.28
3.35
3.54
3.85
4.33
4.96
5.68
6.34
6.77
6.86
6.62
6.16
5.62
5.09
4.51
3.76
2.75
1.48
0.09
-1.22
-2.25
-2.91
-3.19
-3.23
-3.20
-3.29
-3.69
-4.49
-5.73
-7.29
-8.93
-10.34
-11.17
-11.16
-10.21
-8.36
-5.86
-3.04
-0.32
1.95
3.45
4.03
3.72
2.78
1.58
0.49
-0.21
-0.47
-0.36
0.01
0.53
1.22
2.13
3.26
4.53
5.76
6.74
7.36
7.58
7.48
7.13
6.53
5.66
4.45
2.94
1.27
-0.31
-1.49
-2.12
-2.18
-1.94
-1.78
-2.07
-3.03
-4.63
-6.56
-8.45
-9.97
-10.94
-11.31
-11.10
-10.27
-8.77
-6.61
-3.95
-1.15
1.32
3.09
4.04
4.28
4.08
3.70
3.26
2.76
2.18
1.54
0.96
0.62
0.69
1.16
1.91
2.75
3.47
3.99
4.32
4.54
4.70
4.76
4.63
4.20
3.45
2.46
1.38
0.38
-0.42
-1.01
-1.45
-1.83
-2.27
-2.94
-4.01
-5.56
-7.53
-9.65
-11.49
-12.59
-12.64
-11.64
-9.84
-7.65
-5.43
-3.38
-1.57
0.07
1.55
2.82
3.83
4.49
4.85
5.02
5.11
5.19
5.26
5.25
5.14
4.98
4.91
5.02
5.34
5.72
5.95
5.85
5.38
4.68
3.96
3.38
2.97
2.61
2.16
1.55
0.85
0.20
-0.31
-0.69
-1.14
-1.89
-3.12
-4.79
-6.70
-8.47
-9.75
-10.23
-9.80
-8.52
-6.56
-4.22
-1.80
0.45
2.31
3.69
4.51
4.82
4.69
4.24
3.57
2.80
2.02
1.34
0.90
0.82
1.18
1.88
2.75
3.51
4.00
4.19
4.18
4.16
4.21
4.30
4.25
3.91
3.20
2.20
1.10
0.13
-0.59
-1.02
-1.28
-1.55
-2.06
-2.95
-4.30
-6.01
-7.89
-9.59
-10.77
-11.11
-10.44
-8.80
-6.47
-3.87
-1.45
0.42
1.64
2.31
2.62
2.80
2.94
2.99
2.88
2.60
2.25
2.03
2.12
2.59
3.34
4.17
4.87
5.39
5.73
5.96
6.12
6.11
5.80
5.09
3.98
2.62
1.22
-0.01
-0.96
-1.62
-2.05
-2.41
-2.84
-3.53
-4.58
-5.99
-7.58
-9.01
-9.88
-9.82
-8.69
-6.61
-3.94
-1.16
1.29
3.10
4.19
4.64
4.62
4.30
3.81
3.22
2.63
2.17
1.98
2.13
2.58
3.16
3.66
3.95
4.02
4.00
3.98
4.03
4.05
3.88
3.39
2.59
1.58
0.56
-0.36
-1.13
-1.88
-2.73
-3.81
-5.21
-6.91
-8.87
-10.94
-12.86
-14.29
-14.87
-14.31
-12.63
-10.05
-7.03
-4.09
-1.62
0.17
1.25
1.73
1.76
1.51
1.15
0.81
0.62
0.65
0.87
1.27
1.86
2.65
3.65
4.79
5.94
6.89
7.49
7.70
7.55
7.17
6.61
5.90
4.98
3.85
2.58
1.31
0.22
-0.60
-1.18
-1.65
-2.21
-3.03
-4.17
-5.56
-7.04
-8.32
-9.09
-9.05
-8.07
-6.22
-3.80
-1.25
1.02
2.73
3.79
4.27
4.27
3.93
3.36
2.67
2.01
1.56
1.41
1.65
2.20
2.96
3.81
4.65
5.35
5.84
6.04
5.93
5.61
5.17
4.70
4.18
3.58
2.80
1.83
0.77
-0.27
-1.16
-1.87
-2.40
-2.77
-3.00
-3.11
-3.23
-3.52
-4.24
-5.46
-7.05
-8.60
-9.62
-9.71
-8.77
-6.97
-4.70
-2.34
-0.18
1.65
3.12
4.23
4.97
5.39
5.58
5.65
5.65
5.63
5.55
5.39
5.18
5.05
5.09
5.37
5.82
6.29
6.63
6.75
6.59
6.17
5.50
4.65
3.67
2.63
1.57
0.45
-0.73
-1.99
-3.21
-4.20
-4.78
-4.91
-4.75
-4.61
-4.79
-5.46
-6.54
-7.77
-8.85
-9.50
-9.52
-8.88
-7.57
-5.69
-3.41
-0.97
1.38
3.34
4.70
5.38
5.40
4.92
4.18
3.37
2.65
2.11
1.80
1.74
1.95
2.46
3.21
4.10
4.96
5.63
6.00
6.05
5.79
5.29
4.59
3.76
2.85
1.93
1.08
0.36
-0.22
-0.71
-1.17
-1.73
-2.49
-3.55
-4.95
-6.62
-8.31
-9.68
-10.34
-10.06
-8.87
-6.98
-4.82
-2.75
-1.00
0.34
1.36
2.10
2.63
2.92
2.96
2.81
2.57
2.38
2.37
2.53
2.85
3.24
3.66
4.07
4.46
4.79
4.99
4.99
4.78
4.38
3.88
3.36
2.90
2.49
2.09
1.65
1.13
0.57
-0.04
-0.71
-1.52
-2.57
-3.94
-5.60
-7.45
-9.26
-10.80
-11.88
-12.35
-12.09
-11.08
-9.33
-6.94
-4.15
-1.29
1.28
3.25
4.52
5.15
5.30
5.16
4.93
4.72
4.59
4.60
4.71
4.91
5.15
5.41
5.67
5.93
6.15
6.28
6.23
5.94
5.42
4.78
4.15
3.62
3.18
2.74
2.21
1.55
0.81
0.09
-0.50
-0.97
-1.38
-1.83
-2.42
-3.18
-4.15
-5.33
-6.69
-8.11
-9.40
-10.27
-10.44
-9.76
-8.24
-6.02
-3.40
-0.64
1.96
4.19
5.83
6.76
6.94
6.45
5.48
4.30
3.15
2.26
1.76
1.72
2.12
2.85
3.74
4.57
5.14
5.36
5.20
4.78
4.23
3.69
3.30
3.06
2.95
2.86
2.69
2.34
1.81
1.14
0.37
-0.48
-1.47
-2.68
-4.20
-6.02
-8.04
-10.07
-11.84
-13.12
-13.72
-13.53
-12.48
-10.61
-8.02
-4.92
-1.63
1.51
4.16
6.08
7.12
7.29
6.75
5.75
4.60
3.61
2.98
2.74
2.87
3.18
3.54
3.84
4.10
4.38
4.74
5.20
5.68
6.02
6.04
5.63
4.75
3.51
2.10
0.73
-0.46
-1.45
-2.31
-3.17
-4.19
-5.43
-6.88
-8.42
-9.84
-10.90
-11.37
-11.09
-10.02
-8.24
-5.93
-3.39
-0.91
1.22
2.82
3.85
4.36
4.47
4.31
3.94
3.36
2.61
1.76
0.96
0.40
0.17
0.30
0.71
1.25
1.86
2.48
3.10
3.63
3.94
3.85
3.24
2.11
0.60
-1.05
-2.64
-4.01
-5.12
-6.01
-6.80
-7.65
-8.73
-10.11
-11.68
-13.15
-14.05
-13.98
-12.72
-10.42
-7.54
-4.66
-2.24
-0.49
0.69
1.55
2.34
3.16
3.93
4.50
4.73
4.61
4.29
3.94
3.77
3.88
4.30
4.91
5.54
6.02
6.25
6.24
6.05
5.80
5.58
5.34
4.95
4.25
3.19
1.81
0.33
-1.00
-2.05
-2.85
-3.61
-4.61
-6.00
-7.76
-9.62
-11.20
-12.08
-11.99
-10.87
-8.85
-6.24
-3.41
-0.70
1.61
3.38
4.59
5.31
5.74
6.00
6.20
6.41
6.60
6.75
6.90
7.09
7.40
7.88
8.48
9.12
9.70
10.17
10.51
10.69
10.64
10.26
9.48
8.28
6.71
4.94
3.15
1.44
-0.08
-1.40
-2.48
-3.29
-3.86
-4.29
-4.76
-5.48
-6.61
-8.11
-9.78
-11.32
-12.38
-12.68
-12.12
-10.72
-8.68
-6.26
-3.75
-1.42
0.51
1.92
2.78
3.15
3.16
2.92
2.56
2.14
1.73
1.39
1.21
1.28
1.65
2.25
2.93
3.52
3.94
4.19
4.36
4.50
4.57
4.44
3.97
3.10
1.95
0.74
-0.31
-1.05
-1.52
-1.87
-2.29
-2.93
-3.84
-5.01
-6.34
-7.68
-8.86
-9.63
-9.73
-8.96
-7.23
-4.61
-1.41
1.90
4.81
6.94
8.14
8.49
8.22
7.59
6.77
5.85
4.90
4.01
3.32
3.02
3.15
3.69
4.46
5.29
6.00
6.55
6.95
7.20
7.28
7.08
6.50
5.50
4.15
2.61
1.08
-0.29
-1.47
-2.56
-3.72
-5.10
-6.80
-8.81
-10.98
-13.02
-14.54
-15.15
-14.62
-12.96
-10.49
-7.70
-5.11
-3.11
-1.83
-1.15
-0.87
-0.77
-0.74
-0.74
-0.71
-0.62
-0.43
-0.14
0.22
0.61
0.98
1.36
1.84
2.46
3.22
4.07
4.88
5.53
5.89
5.86
5.36
4.38
2.99
1.35
-0.29
-1.69
-2.75
-3.46
-3.98
-4.50
-5.23
-6.35
-7.90
-9.77
-11.68
-13.15
-13.72
-13.07
-11.15
-8.26
-4.94
-1.73
0.93
2.87
4.16
4.96
5.45
5.74
5.90
5.95
5.99
6.11
6.37
6.82
7.40
7.96
8.31
8.37
8.13
7.73
7.39
7.26
7.36
7.55
7.57
7.22
6.37
5.08
3.50
1.81
0.14
-1.45
-2.89
-4.17
-5.26
-6.19
-7.03
-7.93
-9.01
-10.27
-11.52
-12.48
-12.81
-12.28
-10.87
-8.75
-6.20
-3.53
-0.99
1.28
3.23
4.85
6.15
7.15
7.91
8.41
8.71
8.83
8.83
8.83
8.98
9.38
10.07
10.92
11.73
12.30
12.53
12.45
12.11
11.58
10.81
9.75
8.31
6.53
4.57
2.70
1.18
0.13
-0.48
-0.82
-1.14
-1.62
-2.38
-3.47
-4.91
-6.65
-8.66
-10.80
-12.85
-14.45
-15.26
-14.98
-13.56
-11.21
-8.34
-5.43
-2.86
-0.86
0.59
1.57
2.21
2.55
2.58
2.32
1.87
1.44
1.22
1.39
1.97
2.89
3.95
5.01
5.91
6.57
6.99
7.17
7.12
6.83
6.23
5.31
4.11
2.76
1.44
0.30
-0.61
-1.32
-1.95
-2.61
-3.37
-4.30
-5.47
-6.94
-8.68
-10.55
-12.16
-13.09
-13.01
-11.81
-9.69
-7.06
-4.36
-1.89
0.15
1.78
3.03
3.96
4.59
4.92
4.95
4.73
4.37
4.01
3.85
4.00
4.45
5.07
5.64
5.98
6.02
5.88
5.72
5.64
5.60
5.44
5.00
4.17
2.99
1.57
0.04
-1.50
-2.99
-4.43
-5.85
-7.40
-9.21
-11.34
-13.65
-15.74
-17.08
-17.24
-16.05
-13.74
-10.79
-7.75
-5.01
-2.72
-0.88
0.57
1.65
2.41
2.88
3.16
3.34
3.49
3.62
3.77
4.05
4.54
5.31
6.27
7.14
7.67
7.65
7.10
6.19
5.15
4.11
3.08
1.99
0.83
-0.36
-1.49
-2.52
-3.48
-4.51
-5.73
-7.16
-8.75
-10.30
-11.58
-12.34
-12.34
-11.44
-9.66
-7.17
-4.35
-1.60
0.72
2.45
3.64
4.43
5.03
5.52
5.90
6.09
6.05
5.80
5.50
5.33
5.41
5.74
6.21
6.67
7.00
7.23
7.42
7.68
7.95
8.08
7.85
7.08
5.79
4.17
2.52
1.05
-0.15
-1.16
-2.11
-3.12
-4.22
-5.39
-6.58
-7.83
-9.18
-10.66
-12.17
-13.48
-14.24
-14.18
-13.21
-11.46
-9.29
-7.14
-5.37
-4.16
-3.44
-2.97
-2.47
-1.73
-0.74
0.41
1.54
2.54
3.38
4.13
4.87
5.64
6.41
7.11
7.67
8.07
8.33
8.46
8.42
8.17
7.65
6.86
5.86
4.74
3.61
2.59
1.72
1.06
0.53
0.04
-0.58
-1.43
-2.58
-3.99
-5.49
-6.87
-7.89
-8.33
-8.01
-6.89
-5.07
-2.80
-0.41
1.77
3.49
4.68
5.38
5.64
5.55
5.13
4.46
3.61
2.78
2.10
1.64
1.35
1.09
0.73
0.18
-0.52
-1.25
-1.89
-2.33
-2.58
-2.70
-2.83
-3.10
-3.62
-4.38
-5.32
-6.27
-7.08
-7.66
-8.01
-8.21
-8.34
-8.52
-8.74
-8.93
-8.90
-8.43
-7.30
-5.42
-2.95
-0.20
2.39
4.47
5.86
6.60
6.86
6.84
6.66
6.35
5.84
5.12
4.23
3.28
2.45
1.83
1.47
1.36
1.42
1.58
1.78
1.96
2.05
1.99
1.75
1.31
0.75
0.15
-0.40
-0.90
-1.44
-2.15
-3.17
-4.57
-6.27
-8.07
-9.70
-10.87
-11.31
-10.86
-9.52
-7.43
-4.88
-2.24
0.11
1.88
2.97
3.46
3.58
3.54
3.48
3.41
3.23
2.89
2.43
2.00
1.77
1.86
2.24
2.80
3.34
3.72
3.89
3.86
3.65
3.28
2.69
1.83
0.70
-0.66
-2.16
-3.73
-5.36
-7.04
-8.80
-10.58
-12.18
-13.33
-13.63
-12.83
-10.86
-7.94
-4.52
-1.16
1.69
3.78
5.16
6.06
6.76
7.46
8.20
8.87
9.36
9.62
9.76
9.96
10.35
10.96
11.68
12.35
12.87
13.23
13.47
13.64
13.67
13.42
12.69
11.36
9.49
7.23
4.89
2.73
0.94
-0.38
-1.26
-1.79
-2.16
-2.56
-3.22
-4.30
-5.85
-7.77
-9.77
-11.44
-12.32
-12.03
-10.46
-7.82
-4.56
-1.26
1.56
3.61
4.85
5.41
5.54
5.42
5.16
4.77
4.29
3.80
3.42
3.26
3.39
3.78
4.37
5.09
5.89
6.77
7.66
8.46
8.99
9.10
8.72
7.89
6.71
5.36
3.98
2.70
1.58
0.69
0.01
-0.53
-1.02
-1.56
-2.17
-2.87
-3.65
-4.60
-5.84
-7.46
-9.38
-11.32
-12.84
-13.53
-13.15
-11.76
-9.62
-7.12
-4.54
-2.11
0.06
1.88
3.23
3.99
4.13
3.77
3.11
2.41
1.88
1.66
1.77
2.17
2.83
3.69
4.69
5.72
6.68
7.42
7.85
7.89
7.54
6.84
5.87
4.71
3.42
2.07
0.69
-0.68
-1.94
-3.07
-4.04
-4.96
-6.04
-7.47
-9.35
-11.59
-13.87
-15.71
-16.64
-16.35
-14.78
-12.14
-8.84
-5.34
-2.05
0.75
2.88
4.27
4.94
4.96
4.50
3.76
2.97
2.32
1.95
1.95
2.38
3.22
4.33
5.52
6.53
7.16
7.34
7.18
6.87
6.61
6.42
6.23
5.87
5.22
4.25
3.07
1.83
0.70
-0.25
-1.00
-1.66
-2.38
-3.32
-4.57
-6.17
-8.02
-9.98
-11.86
-13.45
-14.53
-14.87
-14.32
-12.77
-10.30
-7.17
-3.79
-0.66
1.83
3.43
4.15
4.20
3.90
3.53
3.29
3.25
3.40
3.70
4.13
4.63
5.14
5.65
6.10
6.52
6.92
7.32
7.74
8.12
8.42
8.52
8.35
7.86
7.08
6.09
5.01
3.95
3.02
2.25
1.60
0.96
0.23
-0.59
-1.45
-2.19
-2.74
-3.11
-3.51
-4.20
-5.41
-7.16
-9.22
-11.12
-12.40
-12.67
-11.78
-9.82
-7.04
-3.83
-0.59
2.25
4.37
5.61
5.99
5.74
5.19
4.65
4.25
4.00
3.86
3.80
3.89
4.20
4.72
5.39
6.04
6.58
7.02
7.40
7.72
7.87
7.63
6.81
5.40
3.64
1.88
0.48
-0.41
-0.88
-1.16
-1.45
-1.90
-2.47
-3.10
-3.69
-4.16
-4.44
-4.52
-4.41
-4.21
-4.15
-4.47
-5.37
-6.86
-8.73
-10.58
-11.92
-12.34
-11.64
-9.90
-7.42
-4.65
-2.04
0.09
1.59
2.46
2.81
2.81
2.58
2.23
1.81
1.42
1.15
1.12
1.43
2.14
3.23
4.56
5.95
7.16
8.03
8.46
8.47
8.13
7.52
6.69
5.67
4.48
3.15
1.76
0.37
-0.95
-2.19
-3.34
-4.43
-5.50
-6.56
-7.62
-8.67
-9.71
-10.76
-11.77
-12.71
-13.38
-13.55
-12.95
-11.39
-8.87
-5.64
-2.16
1.05
3.52
5.04
5.60
5.45
4.93
4.34
3.83
3.41
2.97
2.42
1.79
1.24
1.03
1.34
2.23
3.55
5.01
6.26
7.02
7.20
6.86
6.19
5.41
4.62
3.82
2.94
1.86
0.57
-0.84
-2.21
-3.37
-4.22
-4.79
-5.22
-5.67
-6.29
-7.16
-8.27
-9.59
-11.05
-12.49
-13.69
-14.30
-14.00
-12.59
-10.14
-7.01
-3.73
-0.89
1.16
2.29
2.68
2.65
2.57
2.68
3.06
3.62
4.18
4.54
4.58
4.32
3.96
3.74
3.82
4.27
4.99
5.78
6.45
6.89
7.05
6.93
6.56
5.90
4.97
3.83
2.62
1.47
0.49
-0.31
-1.02
-1.74
-2.53
-3.41
-4.34
-5.40
-6.68
-8.35
-10.46
-12.87
-15.19
-16.94
-17.68
-17.18
-15.47
-12.73
-9.33
-5.62
-1.95
1.34
3.98
5.81
6.83
7.15
6.95
6.38
5.57
4.68
3.89
3.44
3.55
4.29
5.53
6.98
8.29
9.22
9.72
9.90
9.93
9.88
9.71
9.27
8.43
7.19
5.71
4.22
2.95
1.98
1.24
0.55
-0.26
-1.25
-2.33
-3.37
-4.29
-5.03
-5.67
-6.35
-7.22
-8.35
-9.70
-11.06
-12.12
-12.53
-12.02
-10.52
-8.21
-5.49
-2.84
-0.61
1.03
2.16
3.02
3.79
4.54
5.15
5.37
5.04
4.14
2.89
1.64
0.73
0.44
0.80
1.68
2.83
4.01
4.96
5.51
5.62
5.32
4.69
3.85
2.93
2.01
1.17
0.41
-0.27
-0.88
-1.38
-1.78
-2.09
-2.41
-2.80
-3.35
-4.08
-4.95
-5.90
-6.88
-7.84
-8.72
-9.38
-9.56
-9.03
-7.67
-5.56
-3.00
-0.40
1.91
3.80
5.24
6.34
7.15
7.65
7.77
7.48
6.82
5.95
5.10
4.47
4.19
4.24
4.54
4.94
5.28
5.47
5.45
5.23
4.79
4.14
3.29
2.30
1.23
0.19
-0.76
-1.62
-2.44
-3.24
-4.02
-4.78
-5.55
-6.46
-7.68
-9.27
-11.20
-13.14
-14.67
-15.31
-14.76
-12.99
-10.22
-6.88
-3.44
-0.30
2.37
4.49
6.10
7.22
7.81
7.81
7.17
6.03
4.61
3.26
2.27
1.79
1.80
2.16
2.69
3.18
3.59
3.87
4.02
4.03
3.88
3.56
3.08
2.48
1.77
1.00
0.19
-0.63
-1.42
-2.14
-2.78
-3.38
-3.99
-4.72
-5.67
-6.87
-8.29
-9.80
-11.13
-11.97
-12.00
-11.05
-9.11
-6.41
-3.38
-0.46
1.99
3.81
5.03
5.78
6.19
6.36
6.31
6.05
5.62
5.13
4.67
4.31
4.06
3.84
3.59
3.28
3.00
2.87
3.02
3.48
4.16
4.87
5.40
5.56
5.35
4.82
4.11
3.32
2.53
1.76
1.03
0.33
-0.36
-1.12
-2.08
-3.34
-4.94
-6.83
-8.82
-10.71
-12.25
-13.24
-13.51
-12.95
-11.50
-9.16
-6.12
-2.69
0.70
3.67
5.95
7.44
8.19
8.37
8.18
7.78
7.31
6.91
6.65
6.62
6.84
7.26
7.80
8.36
8.83
9.16
9.32
9.28
9.04
8.62
8.01
7.23
6.36
5.50
4.77
4.25
3.88
3.51
2.94
2.08
0.91
-0.41
-1.69
-2.87
-3.95
-5.10
-6.48
-8.14
-9.97
-11.77
-13.29
-14.27
-14.50
-13.81
-12.16
-9.68
-6.61
-3.38
-0.37
2.09
3.88
5.00
5.55
5.60
5.23
4.53
3.62
2.68
1.93
1.52
1.55
2.02
2.86
3.94
5.12
6.24
7.15
7.69
7.78
7.41
6.68
5.73
4.73
3.79
2.92
2.07
1.16
0.15
-0.89
-1.82
-2.53
-2.96
-3.15
-3.26
-3.48
-3.96
-4.79
-6.01
-7.53
-9.25
-10.97
-12.39
-13.15
-12.94
-11.59
-9.23
-6.24
-3.13
-0.39
1.71
3.11
3.95
4.42
4.64
4.70
4.58
4.31
3.96
3.68
3.60
3.80
4.26
4.85
5.37
5.63
5.55
5.13
4.48
3.73
2.98
2.23
1.45
0.59
-0.33
-1.24
-2.02
-2.59
-2.93
-3.09
-3.22
-3.52
-4.13
-5.12
-6.38
-7.73
-8.90
-9.65
-9.85
-9.47
-8.57
-7.22
-5.52
-3.57
-1.55
0.34
1.84
2.73
2.93
2.54
1.76
0.89
0.16
-0.32
-0.54
-0.56
-0.43
-0.17
0.25
0.84
1.51
2.13
2.53
2.62
2.42
2.04
1.59
1.10
0.52
-0.22
-1.12
-2.08
-2.91
-3.47
-3.76
-3.89
-4.15
-4.79
-5.96
-7.58
-9.40
-10.98
-11.87
-11.73
-10.43
-8.16
-5.31
-2.40
0.14
2.12
3.51
4.38
4.84
4.90
4.62
4.06
3.43
2.93
2.70
2.74
2.94
3.12
3.22
3.30
3.47
3.82
4.30
4.80
5.17
5.33
5.27
5.04
4.67
4.18
3.59
2.91
2.19
1.45
0.70
-0.15
-1.23
-2.70
-4.59
-6.79
-8.98
-10.69
-11.49
-11.11
-9.56
-7.13
-4.28
-1.51
0.84
2.59
3.78
4.52
4.93
5.12
5.12
4.98
4.75
4.45
4.13
3.85
3.66
3.61
3.79
4.25
5.03
6.08
7.23
8.26
8.93
9.09
8.74
8.03
7.10
6.05
4.89
3.58
2.16
0.76
-0.47
-1.43
-2.20
-2.99
-3.99
-5.29
-6.82
-8.33
-9.60
-10.42
-10.71
-10.41
-9.54
-8.16
-6.40
-4.43
-2.45
-0.66
0.86
2.05
2.92
3.48
3.76
3.78
3.58
3.27
2.90
2.60
2.45
2.50
2.72
3.02
3.31
3.51
3.63
3.73
3.86
4.01
4.09
3.97
3.56
2.88
2.05
1.27
0.68
0.32
0.13
-0.09
-0.52
-1.35
-2.65
-4.37
-6.36
-8.38
-10.20
-11.62
-12.47
-12.60
-11.89
-10.34
-8.09
-5.46
-2.86
-0.67
0.92
1.96
2.63
3.09
3.40
3.45
3.14
2.50
1.76
1.29
1.38
2.07
3.15
4.25
5.09
5.59
5.90
6.20
6.56
6.85
6.78
6.13
4.87
3.19
1.40
-0.22
-1.52
-2.54
-3.38
-4.17
-5.03
-6.02
-7.24
-8.69
-10.28
-11.73
-12.64
-12.58
-11.37
-9.07
-6.10
-2.95
-0.12
2.12
3.68
4.66
5.16
5.26
5.05
4.60
4.04
3.54
3.23
3.18
3.38
3.76
4.21
4.60
4.84
4.89
4.79
4.66
4.61
4.64
4.61
4.28
3.40
1.91
0.00
-1.97
-3.67
-4.87
-5.57
-5.92
-6.15
-6.47
-6.99
-7.76
-8.77
-9.94
-11.11
-12.05
-12.54
-12.35
-11.40
-9.71
-7.52
-5.10
-2.78
-0.81
0.70
1.73
2.36
2.69
2.79
2.72
2.52
2.28
2.12
2.12
2.27
2.52
2.76
3.00
3.24
3.59
4.10
4.71
5.28
5.67
5.75
5.53
5.04
4.36
3.58
2.74
1.91
1.17
0.61
0.22
-0.09
-0.47
-1.07
-1.93
-2.98
-4.13
-5.31
-6.52
-7.81
-9.17
-10.40
-11.19
-11.15
-10.07
-8.00
-5.23
-2.23
0.56
2.85
4.56
5.74
6.48
6.84
6.88
6.66
6.33
6.06
5.98
6.15
6.48
6.87
7.27
7.70
8.31
9.17
10.22
11.21
11.85
11.91
11.36
10.42
9.34
8.39
7.63
6.97
6.24
5.26
3.98
2.49
0.94
-0.51
-1.81
-2.94
-3.94
-4.83
-5.62
-6.32
-7.07
-8.05
-9.42
-11.18
-13.05
-14.56
-15.19
-14.64
-12.91
-10.29
-7.25
-4.18
-1.38
0.98
2.83
4.10
4.80
4.96
4.78
4.45
4.18
4.08
4.13
4.30
4.51
4.76
5.09
5.54
6.12
6.73
7.23
7.49
7.45
7.12
6.61
6.01
5.41
4.77
4.05
3.16
2.06
0.80
-0.56
-1.88
-3.05
-4.01
-4.77
-5.38
-5.94
-6.58
-7.46
-8.67
-10.24
-12.04
-13.74
-14.94
-15.20
-14.25
-12.13
-9.14
-5.81
-2.69
-0.21
1.44
2.33
2.65
2.69
2.67
2.74
2.91
3.10
3.18
3.12
2.92
2.73
2.70
2.95
3.46
4.15
4.84
5.37
5.72
5.92
6.02
5.97
5.69
5.05
4.00
2.62
1.11
-0.30
-1.47
-2.40
-3.20
-4.01
-4.85
-5.74
-6.61
-7.48
-8.44
-9.57
-10.89
-12.27
-13.39
-13.87
-13.41
-11.89
-9.46
-6.48
-3.40
-0.58
1.73
3.46
4.69
5.53
6.11
6.53
6.84
7.04
7.10
7.00
6.74
6.36
5.88
5.37
4.86
4.35
3.83
3.28
2.73
2.25
1.92
1.77
1.76
1.78
1.70
1.40
0.89
0.26
-0.37
-0.86
-1.15
-1.31
-1.43
-1.64
-2.03
-2.67
-3.60
-4.82
-6.24
-7.62
-8.64
-8.97
-8.33
-6.71
-4.28
-1.43
1.44
3.97
5.97
7.38
8.24
8.63
8.59
8.16
7.38
6.38
5.36
4.54
4.08
4.05
4.39
4.93
5.53
6.08
6.56
6.95
7.23
7.33
7.17
6.69
5.85
4.70
3.29
1.74
0.23
-1.06
-2.00
-2.55
-2.81
-2.97
-3.26
-3.85
-4.82
-6.12
-7.62
-9.07
-10.20
-10.75
-10.53
-9.47
-7.71
-5.51
-3.18
-1.01
0.77
2.09
2.89
3.16
2.96
2.39
1.67
1.02
0.65
0.65
0.96
1.47
2.07
2.71
3.40
4.16
4.96
5.69
6.21
6.38
6.13
5.45
4.42
3.19
1.94
0.85
0.05
-0.39
-0.52
-0.49
-0.51
-0.76
-1.39
-2.47
-3.93
-5.60
-7.14
-8.16
-8.31
-7.42
-5.56
-3.06
-0.36
2.12
4.08
5.37
5.99
6.06
5.68
4.95
3.98
2.83
1.63
0.50
-0.41
-0.97
-1.10
-0.83
-0.24
0.48
1.16
1.68
1.96
2.00
1.80
1.37
0.72
-0.14
-1.09
-2.05
-2.91
-3.62
-4.24
-4.91
-5.81
-7.12
-8.89
-10.97
-12.97
-14.42
-14.85
-14.06
-12.14
-9.44
-6.47
-3.61
-1.13
0.88
2.40
3.42
3.91
3.95
3.72
3.46
3.38
3.50
3.72
3.90
3.98
4.03
4.18
4.50
4.91
5.20
5.20
4.84
4.23
3.56
2.96
2.45
1.89
1.14
0.16
-0.94
-1.98
-2.77
-3.24
-3.53
-3.86
-4.49
-5.62
-7.27
-9.31
-11.40
-13.15
-14.16
-14.18
-13.13
-11.13
-8.49
-5.58
-2.79
-0.43
1.35
2.53
3.30
3.90
4.58
5.48
6.53
7.52
8.18
8.38
8.20
7.91
7.86
8.29
9.24
10.51
11.76
12.68
13.09
13.03
12.62
12.07
11.51
10.98
10.42
9.78
8.99
8.07
7.05
5.96
4.82
3.64
2.46
1.31
0.20
-0.90
-2.10
-3.52
-5.24
-7.16
-9.06
-10.62
-11.52
-11.54
-10.65
-8.93
-6.58
-3.88
-1.16
1.28
3.17
4.34
4.76
4.57
4.02
3.37
2.86
2.66
2.80
3.25
3.93
4.73
5.60
6.55
7.55
8.57
9.46
10.05
10.20
9.88
9.19
8.32
7.45
6.63
5.82
4.92
3.85
2.62
1.33
0.05
-1.09
-2.07
-2.87
-3.48
-3.92
-4.26
-4.65
-5.33
-6.52
-8.31
-10.56
-12.91
-14.88
-15.99
-15.96
-14.73
-12.50
-9.62
-6.50
-3.52
-0.95
1.05
2.41
3.16
3.44
3.47
3.42
3.43
3.54
3.73
4.04
4.53
5.25
6.23
7.34
8.32
8.84
8.70
7.91
6.73
5.51
4.57
3.99
3.64
3.21
2.49
1.38
0.02
-1.37
-2.58
-3.44
-3.92
-4.15
-4.31
-4.63
-5.32
-6.45
-7.95
-9.53
-10.78
-11.35
-11.00
-9.78
-7.91
-5.70
-3.44
-1.33
0.50
1.96
2.99
3.60
3.83
3.77
3.57
3.35
3.22
3.23
3.40
3.71
4.10
4.45
4.66
4.69
4.56
4.35
4.19
4.10
4.03
3.85
3.45
2.77
1.87
0.85
-0.18
-1.10
-1.88
-2.54
-3.13
-3.75
-4.47
-5.40
-6.62
-8.20
-10.09
-12.18
-14.22
-15.90
-16.85
-16.75
-15.47
-13.12
-10.07
-6.80
-3.83
-1.44
0.25
1.39
2.15
2.73
3.22
3.69
4.14
4.55
4.93
5.31
5.65
6.01
6.44
6.97
7.61
8.27
8.81
9.06
8.96
8.56
8.00
7.41
6.90
6.41
5.87
5.17
4.36
3.49
2.68
1.99
1.32
0.53
-0.55
-2.02
-3.84
-5.90
-8.08
-10.26
-12.26
-13.90
-14.92
-15.09
-14.27
-12.47
-9.91
-6.95
-4.01
-1.43
0.60
2.07
3.09
3.83
4.42
4.95
5.44
5.94
6.50
7.19
8.01
8.96
9.94
10.88
11.74
12.52
13.19
13.73
14.02
13.93
13.41
12.50
11.33
10.06
8.81
7.65
6.60
5.64
4.76
3.92
3.02
1.95
0.64
-0.87
-2.46
-3.98
-5.35
-6.62
-8.00
-9.67
-11.71
-13.95
-16.06
-17.60
-18.22
-17.71
-16.09
-13.60
-10.62
-7.59
-4.94
-2.95
-1.69
-1.03
-0.70
-0.43
-0.04
0.48
1.09
1.71
2.32
2.93
3.59
4.28
4.94
5.47
5.80
5.96
6.01
6.08
6.15
6.16
5.97
5.51
4.87
4.32
4.16
4.58
5.50
6.56
7.19
6.89
5.46
3.14
0.54
-1.58
-2.62
-2.40
-1.19
0.32
1.34
1.18
-0.68
-4.58
-10.53
-18.04
-25.92
-32.35
-35.49
-34.19
-28.64
-20.47
-12.10
-5.65
-2.23
-1.64
-2.89
-4.99
-7.52
-10.71
-15.02
-20.61
-27.06
-33.50
-38.94
-42.54
-43.93
-43.12
-40.63
-37.34
-34.24
-32.13
-31.43
-32.04
-33.50
-35.43
-37.73
-40.79
-45.18
-51.31
-59.10
-67.98
-77.20
-86.21
-94.95
-103.68
-112.70
-121.91
-130.62
-137.71
-141.97
-142.48
-138.75
-130.77
-118.83
-103.44
-85.25
-65.04
-43.74
-22.35
-2.00
16.16
31.01
41.70
47.81
49.61
47.99
44.24
39.58
34.85
30.37
26.16
22.12
18.27
14.81
12.04
10.41
10.53
13.02
18.31
26.25
35.86
45.32
52.50
55.73
54.40
49.45
43.13
38.28
37.33
41.33
49.39
58.96
66.82
70.46
69.35
65.14
60.98
59.95
63.57
71.06
79.72
86.27
88.37
85.58
79.31
71.90
65.36
60.43
56.51
52.28
46.79
40.11
33.42
28.10
24.74
22.56
19.64
13.91
4.20
-9.16
-24.55
-39.73
-52.76
-62.69
-69.73
-75.23
-81.21
-89.87
-102.86
-120.70
-142.43
-165.78
-187.98
-206.72
-220.92
-230.84
-237.41
-241.40
-242.69
-240.17
-232.35
-218.17
-197.58
-171.80
-142.83
-112.80
-83.31
-55.26
-28.92
-4.44
17.87
37.46
53.69
66.15
74.86
80.33
83.37
84.80
85.23
84.91
83.75
81.55
78.18
73.76
68.70
63.55
58.87
55.09
52.55
51.50
52.05
54.11
57.08
59.83
60.83
58.72
52.90
43.97
33.68
24.32
17.98
15.79
17.68
22.47
28.36
33.43
36.10
35.37
30.97
23.37
13.68
3.50
-5.48
-11.71
-14.21
-12.68
-7.63
-0.30
7.65
14.50
18.92
20.29
18.95
15.93
12.65
10.42
10.09
11.99
15.97
21.66
28.58
36.28
44.20
51.60
57.50
60.82
60.71
56.89
50.07
41.97
35.07
32.08
35.29
45.95
63.91
87.46
113.53
138.23
157.69
169.01
171.02
164.56
152.03
136.43
120.28
105.03
91.01
78.08
66.32
56.29
48.86
44.56
43.00
42.84
42.14
39.03
32.24
21.42
7.03
-9.77
-27.32
-43.71
-57.15
-66.52
-71.79
-74.20
-75.93
-79.27
-85.75
-95.34
-106.43
-116.23
-121.70
-120.56
-111.89
-96.35
-75.85
-52.82
-29.57
-7.71
12.08
29.83
45.79
60.03
72.21
81.71
88.05
91.17
91.52
89.86
86.99
83.50
79.91
76.81
75.02
75.34
78.21
83.19
89.01
94.01
96.84
96.95
94.45
89.53
81.87
70.68
55.35
36.55
16.68
-0.54
-11.48
-14.20
-9.41
-0.11
9.84
17.39
21.32
22.24
21.65
20.91
20.59
20.50
20.13
19.12
17.37
15.02
12.27
9.14
5.53
1.18
-4.14
-10.52
-17.61
-24.45
-29.43
-30.78
-27.34
-19.29
-8.45
2.05
8.87
9.43
2.67
-10.85
-29.13
-49.07
-66.70
-77.73
-78.35
-66.54
-42.96
-11.28
22.81
53.38
76.21
89.85
95.50
95.80
93.30
89.49
84.66
78.36
70.16
60.03
48.38
35.81
22.87
10.01
-2.27
-13.23
-21.73
-26.46
-26.35
-21.11
-11.62
0.11
11.42
19.67
23.03
20.89
13.95
3.86
-7.30
-17.62
-25.73
-31.01
-33.53
-33.86
-32.81
-31.19
-29.71
-28.99
-29.64
-32.20
-37.00
-43.84
-51.79
-59.30
-64.58
-66.30
-64.06
-58.63
-51.58
-44.77
-39.63
-36.79
-36.04
-36.67
-37.86
-39.07
-40.14
-41.25
-42.73
-44.82
-47.41
-49.91
-51.25
-50.17
-45.64
-37.52
-26.94
-16.14
-7.85
-4.08
-5.20
-9.59
-14.06
-15.10
-10.11
1.72
19.25
39.89
60.32
77.37
88.50
92.23
88.32
77.74
62.40
44.74
27.19
11.84
0.20
-6.82
-8.87
-6.40
-0.61
6.62
13.21
17.57
19.17
18.70
17.69
17.64
19.29
22.36
25.82
28.56
30.04
30.58
31.15
32.77
35.95
40.34
44.73
47.47
46.99
42.46
34.05
22.96
10.94
-0.26
-9.48
-16.39
-21.42
-25.37
-28.90
-32.17
-34.73
-35.63
-33.79
-28.34
-19.07
-6.60
7.53
21.14
31.89
38.09
39.22
36.16
30.94
25.98
23.31
23.92
27.53
32.81
37.94
41.15
41.21
37.63
30.67
21.28
10.94
1.30
-6.11
-10.29
-10.97
-8.65
-4.35
0.67
5.33
8.83
10.84
11.44
11.26
11.34
12.87
16.76
22.98
30.29
36.44
39.06
36.65
29.31
18.68
7.10
-3.40
-11.95
-18.81
-24.84
-30.65
-36.15
-40.62
-43.20
-43.46
-41.62
-38.44
-34.76
-31.18
-27.80
-24.33
-20.36
-15.63
-10.10
-3.95
2.50
8.87
14.65
19.19
21.89
22.56
21.84
21.17
22.42
27.05
35.28
45.75
55.89
62.93
64.95
61.65
54.18
44.59
34.78
25.94
18.26
11.33
4.61
-2.20
-9.08
-15.83
-22.33
-28.68
-35.03
-41.34
-47.19
-51.79
-54.24
-53.94
-50.83
-45.47
-38.85
-32.08
-26.03
-21.18
-17.57
-14.97
-13.00
-11.41
-10.05
-8.97
-8.24
-7.93
-8.08
-8.67
-9.70
-11.20
-13.25
-15.92
-19.32
-23.52
-28.52
-34.17
-40.08
-45.76
-50.70
-54.59
-57.31
-58.87
-59.28
-58.50
-56.62
-54.06
-51.60
-50.23
-50.66
-52.89
-56.03
-58.56
-58.98
-56.37
-50.72
-42.80
-33.79
-24.74
-16.42
-9.26
-3.42
1.01
3.96
5.44
5.63
4.84
3.51
2.09
0.89
0.08
-0.28
-0.23
0.30
1.40
3.17
5.57
8.34
10.97
12.88
13.57
12.78
10.53
7.17
3.13
-1.08
-5.06
-8.55
-11.50
-14.14
-16.81
-19.93
-23.72
-27.99
-32.08
-34.99
-35.72
-33.59
-28.56
-21.27
-12.81
-4.40
2.98
8.75
12.81
15.34
16.70
17.21
17.17
16.80
16.31
15.89
15.69
15.79
16.20
16.88
17.76
18.79
19.94
21.13
22.23
22.98
23.11
22.39
20.73
18.27
15.28
12.10
8.98
6.01
3.10
0.00
-3.56
-7.84
-12.96
-18.79
-24.85
-30.29
-34.03
-35.02
-32.64
-26.99
-18.88
-9.71
-0.90
6.41
11.72
15.04
16.78
17.38
17.16
16.30
14.92
13.20
11.39
9.84
8.82
8.49
8.88
9.83
11.11
12.39
13.35
13.74
13.41
12.37
10.72
8.62
6.20
3.53
0.60
-2.60
-6.06
-9.84
-13.98
-18.52
-23.35
-28.11
-32.07
-34.25
-33.79
-30.18
-23.64
-15.07
-5.75
2.98
10.12
15.16
18.06
19.11
18.73
17.35
15.37
13.15
11.02
9.24
8.01
7.46
7.62
8.37
9.48
10.57
11.24
11.14
10.09
8.13
5.49
2.46
-0.68
-3.77
-6.76
-9.65
-12.50
-15.41
-18.54
-22.07
-26.05
-30.22
-33.88
-36.00
-35.55
-31.90
-25.11
-16.07
-6.15
3.20
10.93
16.60
20.35
22.60
23.79
24.24
24.05
23.24
21.89
20.21
18.49
17.04
16.01
15.40
15.04
14.71
14.27
13.64
12.88
12.00
10.97
9.69
8.06
6.05
3.76
1.28
-1.34
-4.25
-7.67
-11.83
-16.75
-22.10
-27.20
-31.12
-32.93
-31.94
-28.02
-21.60
-13.63
-5.32
2.26
8.40
12.92
16.04
18.19
19.74
20.85
21.48
21.53
20.98
19.97
18.80
17.80
17.21
17.07
17.32
17.78
18.31
18.83
19.27
19.48
19.23
18.26
16.48
14.14
11.74
9.80
8.45
7.21
5.13
1.26
-4.81
-12.58
-20.76
-27.82
-32.45
-33.95
-32.14
-27.17
-19.32
-9.09
2.65
14.60
25.27
33.40
38.38
40.41
40.21
38.63
36.32
33.59
30.63
27.65
24.98
23.01
21.97
21.86
22.39
23.09
23.43
23.01
21.59
19.16
15.88
12.02
7.85
3.49
-1.08
-6.01
-11.40
-17.17
-23.05
-28.64
-33.59
-37.74
-41.19
-44.18
-47.07
-50.15
-53.60
-57.44
-61.53
-65.50
-68.69
-70.26
-69.36
-65.43
-58.43
-48.92
-37.96
-26.82
-16.62
-7.98
-1.02
4.67
9.65
14.46
19.35
24.31
29.19
33.77
37.91
41.58
44.82
47.76
50.65
53.86
57.74
62.45
67.75
72.97
77.15
79.29
78.67
75.00
68.46
59.65
49.41
38.66
28.22
18.58
9.78
1.39
-7.25
-16.69
-26.94
-37.36
-46.80
-53.95
-57.70
-57.56
-53.57
-46.29
-36.55
-25.33
-13.58
-2.25
7.85
16.18
22.57
27.30
31.06
34.70
38.99
44.42
51.03
58.39
65.69
71.94
76.13
77.42
75.33
69.73
60.88
49.37
36.03
21.80
7.51
-6.25
-19.19
-31.30
-42.59
-52.98
-62.17
-69.77
-75.58
-79.73
-82.65
-84.83
-86.40
-87.00
-85.82
-82.09
-75.53
-66.54
-56.11
-45.37
-35.19
-25.98
-17.72
-10.24
-3.50
2.33
7.01
10.37
12.49
13.68
14.33
14.82
15.36
15.99
16.60
17.04
17.19
17.01
16.55
15.87
14.94
13.60
11.49
8.28
3.87
-1.44
-6.83
-11.21
-13.48
-13.00
-9.82
-4.73
1.07
6.33
10.22
12.60
13.97
15.24
17.27
20.46
24.58
28.83
32.21
33.86
33.39
30.83
26.57
21.04
14.72
8.08
1.66
-3.91
-8.06
-10.44
-10.88
-9.38
-5.91
-0.38
7.21
16.58
26.97
37.23
46.11
52.62
56.24
56.76
54.10
48.01
38.17
24.36
6.86
-13.48
-35.35
-57.35
-78.35
-97.65
-114.86
-129.65
-141.55
-149.85
-153.70
-152.24
-144.77
-131.05
-111.37
-86.85
-59.38
-31.49
-5.80
15.54
31.34
41.42
46.36
46.91
43.59
36.53
25.82
12.05
-3.39
-18.37
-30.52
-38.09
-40.46
-38.25
-32.96
-26.23
-19.21
-12.31
-5.44
1.52
8.44
14.78
19.86
23.29
25.15
25.91
26.22
26.49
26.75
26.71
25.91
24.08
21.18
17.45
13.27
9.04
5.15
1.93
-0.29
-1.27
-0.93
0.59
2.93
5.56
7.92
9.57
10.22
9.68
7.66
3.80
-2.25
-10.45
-20.03
-29.40
-36.53
-39.66
-38.10
-32.67
-25.44
-18.97
-15.22
-14.79
-16.78
-19.35
-20.60
-19.57
-16.61
-13.19
-11.19
-12.08
-16.20
-22.74
-30.01
-36.20
-39.97
-40.81
-38.97
-35.13
-30.04
-24.21
-17.87
-11.09
-3.90
3.48
10.65
17.17
22.74
27.50
31.92
36.74
42.48
49.17
56.28
63.06
68.92
73.80
78.23
82.94
88.44
94.68
100.97
106.33
109.80
110.81
109.30
105.69
100.69
95.17
90.02
86.01
83.52
82.61
82.86
83.55
83.82
82.77
79.65
73.91
65.24
53.69
39.61
23.73
7.01
-9.58
-25.31
-39.76
-52.89
-64.83
-75.75
-85.67
-94.53
-102.19
-108.60
-113.78
-117.75
-120.51
-121.87
-121.60
-119.45
-115.33
-109.40
-102.01
-93.64
-84.71
-75.50
-66.18
-56.76
-47.29
-37.89
-28.78
-20.25
-12.51
-5.61
0.62
6.41
11.98
17.30
22.15
26.19
29.13
31.03
32.46
34.52
38.72
46.59
59.26
77.20
99.90
126.04
153.65
180.44
204.07
222.45
234.04
238.19
235.33
226.85
214.79
201.17
187.51
174.60
162.76
152.09
142.75
134.82
128.04
121.69
114.65
105.87
94.74
81.32
66.19
50.15
33.95
18.27
3.76
-8.93
-19.29
-27.06
-32.49
-36.24
-39.10
-41.58
-43.56
-44.32
-42.78
-38.07
-30.02
-19.45
-8.08
2.03
9.19
12.75
13.24
12.04
10.72
10.34
11.13
12.66
14.30
15.77
17.30
19.42
22.62
26.93
31.87
36.57
40.05
41.47
40.23
36.18
29.62
21.33
12.44
4.09
-2.82
-7.91
-11.16
-12.85
-13.47
-13.73
-14.73
-17.92
-24.85
-36.51
-52.89
-72.69
-93.72
-113.67
-130.78
-144.20
-153.86
-160.08
-163.20
-163.47
-161.19
-156.83
-151.07
-144.46
-137.21
-129.07
-119.45
-107.82
-94.01
-78.26
-61.05
-42.84
-24.03
-5.07
13.17
29.28
41.27
47.05
45.01
34.81
17.70
-3.56
-25.37
-44.34
-58.34
-67.13
-72.39
-77.00
-83.99
-95.53
-112.38
-133.88
-158.32
-183.37
-206.56
-225.50
-238.23
-243.51
-241.11
-231.89
-217.57
-200.21
-181.66
-162.98
-144.37
-125.40
-105.50
-84.54
-62.99
-41.89
-22.56
-6.07
7.04
16.89
24.11
29.50
33.79
37.43
40.60
43.26
45.32
46.73
47.49
47.67
47.32
46.47
45.06
43.02
40.28
36.89
32.98
28.77
24.44
20.10
15.72
11.28
6.88
2.80
-0.52
-2.69
-3.58
-3.44
-2.84
-2.44
-2.73
-3.77
-5.27
-6.69
-7.49
-7.39
-6.32
-4.43
-1.94
0.91
3.88
6.68
9.00
10.54
11.19
11.04
10.40
9.69
9.26
9.28
9.66
10.22
10.79
11.32
11.89
12.62
13.58
14.64
15.60
16.23
16.36
15.99
15.24
14.31
13.42
12.74
12.32
12.13
12.09
12.10
12.01
11.66
10.81
9.24
6.79
3.42
-0.75
-5.43
-10.33
-15.20
-19.88
-24.31
-28.37
-31.85
-34.41
-35.65
-35.26
-33.14
-29.44
-24.57
-19.03
-13.33
-7.86
-2.85
1.55
5.25
8.17
10.19
11.23
11.30
10.61
9.47
8.21
7.12
6.29
5.67
5.13
4.61
4.08
3.66
3.43
3.39
3.47
3.58
3.69
3.89
4.34
5.14
6.25
7.44
8.38
8.74
8.29
7.03
5.12
2.90
0.75
-0.91
-1.73
-1.51
-0.23
1.86
4.36
6.77
8.67
9.83
10.27
10.19
9.89
9.57
9.29
8.94
8.29
7.19
5.63
3.84
2.15
0.92
0.34
0.39
0.84
1.40
1.79
1.89
1.72
1.36
0.93
0.52
0.19
-0.05
-0.15
-0.14
-0.10
-0.23
-0.84
-2.18
-4.30
-6.95
-9.58
-11.49
-12.11
-11.21
-8.99
-5.95
-2.77
0.03
2.10
3.36
3.84
3.67
2.98
1.97
0.85
-0.15
-0.91
-1.35
-1.53
-1.57
-1.57
-1.58
-1.62
-1.63
-1.61
-1.53
-1.37
-1.13
-0.79
-0.36
0.09
0.49
0.71
0.71
0.54
0.24
-0.14
-0.62
-1.29
-2.24
-3.50
-4.93
-6.23
-7.04
-7.08
-6.25
-4.69
-2.73
-0.76
0.86
1.98
2.58
2.79
2.80
2.80
2.92
3.18
3.49
3.68
3.61
3.21
2.59
1.97
1.61
1.70
2.28
3.20
4.23
5.10
5.60
5.64
5.23
4.48
3.57
2.67
1.94
1.47
1.24
1.22
1.29
1.30
1.05
0.41
-0.67
-2.10
-3.62
-4.86
-5.47
-5.26
-4.29
-2.79
-1.12
0.45
1.75
2.74
3.43
3.86
4.07
4.14
4.18
4.32
4.65
5.18
5.78
6.30
6.57
6.53
6.23
5.79
5.40
5.14
5.01
4.94
4.77
4.39
3.79
3.02
2.24
1.54
0.97
0.52
0.13
-0.27
-0.74
-1.32
-2.06
-3.01
-4.15
-5.40
-6.58
-7.46
-7.89
-7.78
-7.18
-6.19
-4.94
-3.56
-2.15
-0.86
0.23
1.03
1.58
1.94
2.22
2.46
2.59
2.52
2.24
1.83
1.50
1.47
1.86
2.66
3.67
4.66
5.43
5.85
5.85
5.43
4.60
3.45
2.12
0.83
-0.22
-0.90
-1.21
-1.24
-1.13
-1.01
-1.02
-1.26
-1.82
-2.69
-3.79
-4.91
-5.74
-6.04
-5.68
-4.75
-3.44
-1.99
-0.58
0.70
1.83
2.83
3.65
4.21
4.40
4.15
3.46
2.41
1.17
-0.01
-0.85
-1.13
-0.75
0.16
1.31
2.37
3.06
3.30
3.17
2.84
2.39
1.84
1.11
0.19
-0.82
-1.70
-2.24
-2.34
-2.07
-1.68
-1.47
-1.69
-2.44
-3.59
-4.90
-6.04
-6.71
-6.71
-6.06
-4.87
-3.45
-2.08
-0.96
-0.17
0.33
0.64
0.84
0.96
0.99
0.88
0.63
0.25
-0.16
-0.50
-0.66
-0.54
-0.10
0.61
1.49
2.35
3.03
3.43
3.56
3.50
3.33
3.07
2.70
2.19
1.54
0.82
0.11
-0.55
-1.17
-1.83
-2.57
-3.40
-4.27
-5.16
-6.08
-7.07
-8.06
-8.95
-9.55
-9.64
-9.16
-8.15
-6.72
-5.04
-3.21
-1.32
0.54
2.24
3.63
4.62
5.17
5.35
5.24
4.92
4.43
3.80
3.10
2.47
2.08
2.07
2.48
3.18
3.98
4.64
5.00
5.07
4.94
4.82
4.85
5.02
5.18
5.11
4.64
3.79
2.71
1.64
0.77
0.18
-0.22
-0.51
-0.78
-1.08
-1.44
-1.94
-2.67
-3.71
-5.04
-6.48
-7.72
-8.46
-8.46
-7.66
-6.19
-4.33
-2.37
-0.59
0.84
1.86
2.47
2.75
2.82
2.84
2.89
3.04
3.24
3.42
3.50
3.48
3.46
3.57
3.92
4.47
5.05
5.43
5.38
4.86
3.99
3.02
2.19
1.63
1.33
1.17
1.04
0.84
0.58
0.27
-0.06
-0.46
-0.99
-1.67
-2.45
-3.22
-3.90
-4.52
-5.19
-6.06
-7.16
-8.31
-9.16
-9.38
-8.75
-7.34
-5.40
-3.32
-1.35
0.37
1.80
2.98
3.87
4.42
4.56
4.30
3.72
2.97
2.24
1.74
1.68
2.14
3.09
4.29
5.44
6.29
6.69
6.73
6.56
6.34
6.10
5.76
5.24
4.52
3.71
2.96
2.35
1.84
1.31
0.65
-0.14
-0.96
-1.66
-2.18
-2.56
-2.92
-3.40
-4.01
-4.71
-5.39
-5.92
-6.19
-6.09
-5.56
-4.58
-3.21
-1.64
-0.13
1.11
1.99
2.52
2.77
2.81
2.65
2.27
1.66
0.92
0.24
-0.21
-0.32
-0.06
0.46
1.17
1.92
2.63
3.20
3.54
3.57
3.28
2.76
2.16
1.66
1.43
1.47
1.69
1.88
1.82
1.38
0.59
-0.41
-1.37
-2.08
-2.45
-2.60
-2.73
-3.11
-3.90
-5.11
-6.61
-8.18
-9.52
-10.37
-10.50
-9.77
-8.21
-6.02
-3.50
-1.05
1.06
2.65
3.71
4.32
4.61
4.66
4.60
4.50
4.39
4.29
4.15
3.94
3.71
3.57
3.67
4.13
4.99
6.11
7.29
8.29
8.93
9.16
8.98
8.46
7.68
6.77
5.83
4.98
4.22
3.51
2.76
1.88
0.84
-0.31
-1.44
-2.46
-3.31
-4.03
-4.78
-5.69
-6.81
-8.09
-9.28
-10.12
-10.34
-9.79
-8.49
-6.62
-4.49
-2.37
-0.51
1.01
2.17
3.07
3.77
4.34
4.82
5.18
5.43
5.56
5.62
5.60
5.52
5.35
5.11
4.90
4.82
4.99
5.43
6.04
6.62
6.97
6.94
6.50
5.74
4.77
3.72
2.70
1.78
0.99
0.32
-0.27
-0.87
-1.51
-2.18
-2.76
-3.17
-3.39
-3.52
-3.78
-4.42
-5.60
-7.29
-9.29
-11.23
-12.65
-13.18
-12.60
-10.97
-8.59
-5.89
-3.30
-1.10
0.62
1.94
2.95
3.73
4.26
4.44
4.22
3.69
3.05
2.63
2.71
3.38
4.51
5.78
6.85
7.45
7.57
7.33
6.95
6.58
6.28
6.04
5.81
5.58
5.32
5.01
4.59
3.98
3.16
2.15
1.00
-0.18
-1.27
-2.21
-2.98
-3.64
-4.29
-5.02
-5.85
-6.66
-7.25
-7.36
-6.86
-5.74
-4.22
-2.55
-0.96
0.46
1.72
2.82
3.71
4.23
4.22
3.62
2.60
1.52
0.79
0.78
1.58
3.04
4.74
6.23
7.13
7.28
6.75
5.77
4.61
3.47
2.43
1.49
0.54
-0.48
-1.62
-2.84
-4.05
-5.09
-5.84
-6.28
-6.47
-6.57
-6.76
-7.14
-7.71
-8.34
-8.90
-9.26
-9.32
-9.02
-8.33
-7.24
-5.76
-4.00
-2.09
-0.23
1.41
2.71
3.62
4.13
4.28
4.15
3.89
3.60
3.39
3.35
3.46
3.71
4.06
4.45
4.84
5.19
5.48
5.67
5.77
5.78
5.73
5.63
5.40
4.99
4.31
3.37
2.26
1.14
0.20
-0.46
-0.87
-1.24
-1.82
-2.80
-4.21
-5.88
-7.56
-8.95
-9.85
-10.20
-10.01
-9.30
-8.13
-6.57
-4.75
-2.86
-1.10
0.34
1.38
2.06
2.48
2.76
2.97
3.15
3.32
3.52
3.79
4.21
4.83
5.63
6.54
7.46
8.23
8.73
8.88
8.71
8.31
7.85
7.47
7.23
7.09
6.93
6.56
5.84
4.77
3.44
1.99
0.60
-0.60
-1.55
-2.26
-2.86
-3.50
-4.36
-5.54
-6.97
-8.43
-9.56
-10.01
-9.56
-8.20
-6.11
-3.62
-1.07
1.25
3.16
4.56
5.43
5.81
5.79
5.50
5.08
4.63
4.21
3.87
3.63
3.53
3.61
3.91
4.41
5.05
5.72
6.27
6.57
6.52
6.05
5.17
3.93
2.49
1.04
-0.26
-1.29
-2.12
-2.85
-3.62
-4.48
-5.33
-6.03
-6.45
-6.63
-6.74
-7.04
-7.71
-8.71
-9.83
-10.74
-11.10
-10.70
-9.56
-7.78
-5.57
-3.18
-0.82
1.26
2.91
4.04
4.63
4.79
4.65
4.37
4.04
3.77
3.65
3.78
4.25
5.07
6.14
7.23
8.13
8.63
8.69
8.42
7.96
7.42
6.77
5.96
4.91
3.68
2.39
1.25
0.36
-0.24
-0.65
-1.03
-1.52
-2.21
-3.13
-4.28
-5.56
-6.79
-7.70
-8.04
-7.61
-6.42
-4.67
-2.71
-0.85
0.69
1.83
2.61
3.06
3.24
3.15
2.83
2.35
1.83
1.35
0.95
0.61
0.32
0.13
0.12
0.35
0.83
1.47
2.11
2.62
2.93
3.09
3.18
3.22
3.18
2.93
2.39
1.53
0.44
-0.75
-1.89
-2.86
-3.66
-4.39
-5.21
-6.27
-7.61
-9.08
-10.36
-11.03
-10.72
-9.27
-6.85
-3.88
-0.88
1.67
3.52
4.68
5.26
5.48
5.50
5.42
5.27
5.05
4.78
4.48
4.20
3.92
3.67
3.47
3.38
3.49
3.81
4.26
4.70
5.00
5.08
4.91
4.55
4.07
3.53
2.93
2.24
1.51
0.76
0.00
-0.73
-1.45
-2.15
-2.88
-3.70
-4.76
-6.16
-7.95
-9.95
-11.78
-13.02
-13.28
-12.43
-10.63
-8.17
-5.43
-2.70
-0.21
1.92
3.60
4.78
5.46
5.68
5.51
5.05
4.38
3.66
3.01
2.58
2.48
2.72
3.27
3.97
4.70
5.33
5.82
6.14
6.33
6.43
6.47
6.43
6.25
5.88
5.29
4.52
3.65
2.79
2.01
1.29
0.57
-0.26
-1.26
-2.48
-3.88
-5.41
-6.98
-8.48
-9.78
-10.73
-11.20
-11.04
-10.22
-8.80
-6.94
-4.89
-2.91
-1.12
0.42
1.77
2.98
4.00
4.77
5.16
5.15
4.83
4.35
3.92
3.67
3.67
3.92
4.33
4.81
5.23
5.47
5.45
5.22
4.86
4.47
4.07
3.61
3.01
2.24
1.43
0.72
0.28
0.12
0.08
-0.09
-0.65
-1.65
-3.01
-4.52
-5.94
-7.09
-7.89
-8.29
-8.31
-7.95
-7.19
-6.03
-4.46
-2.58
-0.51
1.59
3.53
5.13
6.27
6.90
7.01
6.68
6.05
5.26
4.48
3.81
3.34
3.07
2.98
3.07
3.34
3.77
4.32
4.89
5.29
5.37
5.01
4.20
3.02
1.63
0.18
-1.16
-2.28
-3.18
-3.92
-4.68
-5.63
-6.89
-8.38
-9.87
-11.00
-11.40
-10.86
-9.36
-7.16
-4.64
-2.22
-0.19
1.29
2.28
2.89
3.26
3.51
3.68
3.76
3.76
3.69
3.57
3.41
3.21
3.01
2.87
2.90
3.15
3.58
4.04
4.33
4.28
3.86
3.17
2.37
1.63
0.95
0.27
-0.55
-1.59
-2.89
-4.38
-6.05
-7.84
-9.70
-11.42
-12.67
-13.04
-12.21
-10.19
-7.28
-4.05
-1.09
1.22
2.79
3.77
4.38
4.78
5.00
5.04
4.89
4.59
4.22
3.80
3.35
2.88
2.42
2.07
1.95
2.10
2.50
2.99
3.40
3.62
3.62
3.42
3.06
2.53
1.84
1.02
0.17
-0.58
-1.17
-1.65
-2.20
-3.07
-4.37
-6.09
-7.93
-9.45
-10.17
-9.76
-8.19
-5.70
-2.80
0.01
2.33
4.03
5.24
6.18
7.06
7.90
8.59
8.94
8.84
8.39
7.75
7.14
6.71
6.46
6.36
6.34
6.40
6.56
6.81
7.09
7.29
7.27
7.01
6.58
6.15
5.86
5.74
5.68
5.50
5.06
4.36
3.54
2.77
2.19
1.74
1.28
0.57
-0.60
-2.31
-4.56
-7.19
-9.96
-12.52
-14.46
-15.37
-15.02
-13.45
-11.00
-8.21
-5.62
-3.61
-2.21
-1.22
-0.33
0.65
1.71
2.66
3.23
3.29
2.92
2.39
2.04
2.09
2.64
3.60
4.79
5.99
7.04
7.81
8.24
8.28
7.96
7.33
6.45
5.36
4.04
2.53
0.87
-0.77
-2.22
-3.28
-3.95
-4.31
-4.61
-5.13
-6.01
-7.22
-8.55
-9.72
-10.49
-10.76
-10.51
-9.76
-8.54
-6.84
-4.70
-2.20
0.44
2.97
5.14
6.79
7.85
8.33
8.30
7.83
7.04
6.08
5.15
4.47
4.19
4.36
4.92
5.72
6.55
7.19
7.50
7.45
7.06
6.48
5.79
5.06
4.27
3.37
2.33
1.16
-0.05
-1.23
-2.27
-3.15
-3.92
-4.72
-5.64
-6.74
-7.94
-9.09
-9.98
-10.43
-10.36
-9.77
-8.75
-7.41
-5.89
-4.25
-2.60
-1.02
0.36
1.36
1.89
1.91
1.50
0.85
0.21
-0.18
-0.17
0.26
1.04
2.01
2.98
3.77
4.24
4.34
4.11
3.67
3.21
2.88
2.73
2.66
2.45
1.92
1.01
-0.14
-1.27
-2.14
-2.64
-2.84
-2.91
-3.06
-3.35
-3.80
-4.37
-5.04
-5.85
-6.78
-7.69
-8.27
-8.15
-7.08
-5.07
-2.41
0.39
2.86
4.70
5.80
6.25
6.18
5.70
4.89
3.86
2.78
1.86
1.33
1.31
1.80
2.66
3.74
4.84
5.83
6.61
7.14
7.40
7.42
7.21
6.77
6.11
5.22
4.14
2.95
1.77
0.70
-0.17
-0.82
-1.26
-1.56
-1.80
-2.10
-2.55
-3.22
-4.11
-5.17
-6.34
-7.52
-8.63
-9.53
-10.03
-9.91
-8.93
-7.04
-4.40
-1.40
1.49
3.86
5.49
6.42
6.80
6.84
6.63
6.21
5.57
4.80
4.03
3.46
3.17
3.18
3.33
3.48
3.56
3.56
3.60
3.77
4.07
4.41
4.68
4.81
4.78
4.64
4.44
4.20
3.90
3.57
3.29
3.16
3.20
3.32
3.33
3.07
2.46
1.58
0.58
-0.48
-1.61
-2.99
-4.77
-6.96
-9.36
-11.56
-13.11
-13.64
-13.07
-11.55
-9.43
-7.13
-4.92
-2.94
-1.22
0.24
1.38
2.06
2.17
1.73
0.93
0.07
-0.55
-0.77
-0.55
0.04
0.91
1.99
3.15
4.25
5.13
5.63
5.71
5.44
4.98
4.51
4.13
3.86
3.64
3.37
2.99
2.44
1.74
0.94
0.12
-0.65
-1.34
-1.97
-2.65
-3.47
-4.51
-5.79
-7.24
-8.68
-9.90
-10.62
-10.61
-9.73
-7.98
-5.52
-2.62
0.40
3.25
5.68
7.52
8.65
9.02
8.66
7.71
6.37
4.92
3.62
2.68
2.23
2.28
2.78
3.59
4.53
5.44
6.18
6.68
6.92
6.89
6.57
5.96
5.06
3.95
2.75
1.61
0.63
-0.17
-0.89
-1.73
-2.88
-4.40
-6.23
-8.19
-10.02
-11.51
-12.51
-12.90
-12.57
-11.46
-9.61
-7.21
-4.60
-2.17
-0.21
1.19
2.11
2.73
3.19
3.51
3.64
3.53
3.19
2.74
2.31
2.03
1.96
2.12
2.44
2.82
3.15
3.32
3.30
3.10
2.79
2.46
2.10
1.71
1.22
0.63
-0.01
-0.65
-1.21
-1.72
-2.27
-2.97
-3.91
-5.13
-6.55
-8.04
-9.43
-10.51
-11.09
-10.99
-10.12
-8.50
-6.30
-3.83
-1.42
0.65
2.26
3.40
4.13
4.53
4.60
4.31
3.68
2.81
1.91
1.21
0.92
1.05
1.49
2.01
2.41
2.60
2.65
2.67
2.82
3.18
3.68
4.17
4.40
4.20
3.50
2.36
0.96
-0.44
-1.61
-2.40
-2.82
-2.99
-3.15
-3.57
-4.44
-5.78
-7.41
-9.00
-10.15
-10.54
-10.03
-8.67
-6.64
-4.27
-1.85
0.33
2.10
3.36
4.16
4.62
4.89
5.11
5.32
5.57
5.83
6.09
6.34
6.57
6.78
6.99
7.23
7.53
7.91
8.32
8.66
8.81
8.70
8.31
7.68
6.88
5.99
5.06
4.13
3.27
2.54
1.98
1.57
1.31
1.13
0.97
0.76
0.41
-0.16
-1.05
-2.32
-3.94
-5.75
-7.54
-9.05
-10.00
-10.25
-9.74
-8.53
-6.79
-4.78
-2.79
-1.10
0.10
0.74
0.87
0.64
0.20
-0.25
-0.57
-0.64
-0.34
0.35
1.43
2.72
4.04
5.14
5.88
6.23
6.28
6.23
6.22
6.32
6.45
6.49
6.29
5.71
4.73
3.47
2.13
0.98
0.23
-0.05
0.01
0.14
0.03
-0.51
-1.57
-3.01
-4.64
-6.24
-7.55
-8.40
-8.58
-7.97
-6.56
-4.48
-2.03
0.39
2.48
4.08
5.20
5.93
6.36
6.54
6.42
5.97
5.24
4.32
3.42
2.74
2.43
2.53
2.99
3.63
4.27
4.72
4.92
4.84
4.57
4.14
3.61
2.97
2.23
1.37
0.43
-0.51
-1.38
-2.17
-2.93
-3.75
-4.72
-5.87
-7.12
-8.36
-9.38
-10.02
-10.20
-9.85
-9.03
-7.77
-6.14
-4.21
-2.10
0.08
2.08
3.68
4.70
5.07
4.85
4.18
3.31
2.40
1.60
0.97
0.55
0.32
0.27
0.36
0.54
0.69
0.75
0.69
0.57
0.49
0.56
0.80
1.12
1.37
1.39
1.07
0.36
-0.64
-1.77
-2.83
-3.67
-4.27
-4.73
-5.26
-6.12
-7.43
-9.11
-10.80
-12.02
-12.32
-11.48
-9.59
-7.02
-4.22
-1.64
0.50
2.16
3.42
4.37
5.05
5.43
5.42
5.02
4.29
3.37
2.47
1.76
1.39
1.43
1.92
2.81
4.00
5.26
6.35
7.06
7.31
7.18
6.81
6.36
5.87
5.27
4.43
3.35
2.10
0.89
-0.13
-0.91
-1.49
-2.01
-2.63
-3.47
-4.57
-5.91
-7.44
-8.99
-10.30
-11.10
-11.16
-10.35
-8.74
-6.57
-4.16
-1.86
0.08
1.55
2.62
3.40
4.01
4.51
4.83
4.94
4.86
4.72
4.75
5.12
5.91
7.00
8.19
9.23
9.96
10.37
10.52
10.49
10.35
10.09
9.67
9.01
8.05
6.78
5.23
3.48
1.66
-0.10
-1.68
-3.00
-4.02
-4.80
-5.45
-6.17
-7.10
-8.34
-9.81
-11.30
-12.51
-13.12
-12.95
-12.00
-10.45
-8.57
-6.59
-4.66
-2.84
-1.13
0.42
1.70
2.60
3.03
3.00
2.61
2.05
1.53
1.21
1.18
1.45
1.96
2.62
3.32
3.95
4.41
4.65
4.62
4.30
3.74
2.99
2.16
1.37
0.74
0.34
0.21
0.27
0.38
0.34
-0.03
-0.82
-1.98
-3.37
-4.84
-6.21
-7.34
-8.06
-8.19
-7.59
-6.26
-4.35
-2.15
-0.01
1.82
3.22
4.22
4.90
5.33
5.52
5.41
4.99
4.26
3.35
2.44
1.69
1.27
1.22
1.51
2.03
2.65
3.22
3.66
3.89
3.84
3.49
2.87
2.09
1.29
0.57
-0.04
-0.57
-1.08
-1.67
-2.39
-3.33
-4.54
-6.01
-7.61
-9.05
-9.92
-9.90
-8.86
-6.96
-4.59
-2.20
-0.15
1.39
2.40
2.99
3.28
3.37
3.34
3.19
2.91
2.52
2.09
1.76
1.66
1.88
2.38
3.02
3.60
3.99
4.17
4.18
4.11
3.97
3.69
3.22
2.55
1.76
0.98
0.33
-0.19
-0.68
-1.26
-2.05
-3.14
-4.52
-6.11
-7.80
-9.40
-10.69
-11.49
-11.62
-11.04
-9.81
-8.12
-6.20
-4.26
-2.45
-0.87
0.48
1.67
2.71
3.60
4.32
4.83
5.09
5.13
5.02
4.91
4.94
5.24
5.87
6.72
7.63
8.40
8.87
9.01
8.92
8.72
8.46
8.10
7.45
6.35
4.76
2.82
0.82
-0.92
-2.23
-3.10
-3.72
-4.38
-5.36
-6.75
-8.45
-10.23
-11.81
-12.93
-13.42
-13.18
-12.11
-10.19
-7.47
-4.18
-0.68
2.57
5.17
6.88
7.73
7.93
7.77
7.51
7.25
6.99
6.62
6.06
5.37
4.69
4.28
4.33
4.88
5.76
6.66
7.25
7.30
6.77
5.81
4.59
3.27
1.94
0.64
-0.59
-1.69
-2.59
-3.23
-3.58
-3.70
-3.67
-3.67
-3.84
-4.29
-5.07
-6.13
-7.34
-8.56
-9.61
-10.34
-10.64
-10.41
-9.62
-8.32
-6.62
-4.69
-2.68
-0.69
1.21
2.92
4.30
5.25
5.68
5.62
5.27
4.84
4.53
4.46
4.64
5.04
5.62
6.34
7.16
7.99
8.63
8.89
8.62
7.83
6.69
5.43
4.28
3.37
2.68
2.13
1.62
1.14
0.71
0.34
-0.07
-0.69
-1.70
-3.19
-5.06
-6.99
-8.62
-9.61
-9.80
-9.19
-8.00
-6.43
-4.72
-3.04
-1.51
-0.20
0.82
1.52
1.92
2.04
2.00
1.92
1.89
1.99
2.21
2.56
3.00
3.47
3.95
4.38
4.79
5.20
5.68
6.21
6.71
7.00
6.85
6.16
4.96
3.48
2.01
0.80
-0.06
-0.59
-0.93
-1.25
-1.74
-2.63
-4.17
-6.44
-9.30
-12.28
-14.74
-16.03
-15.83
-14.25
-11.79
-9.06
-6.58
-4.61
-3.11
-1.90
-0.79
0.24
1.16
1.84
2.19
2.23
2.02
1.79
1.71
1.94
2.51
3.36
4.31
5.18
5.87
6.37
6.74
7.01
7.13
7.01
6.52
5.62
4.35
2.88
1.36
-0.03
-1.22
-2.25
-3.20
-4.22
-5.41
-6.86
-8.51
-10.19
-11.62
-12.47
-12.49
-11.60
-9.93
-7.76
-5.42
-3.21
-1.34
0.17
1.34
2.24
2.96
3.54
4.00
4.35
4.61
4.82
5.01
5.25
5.55
5.91
6.29
6.67
7.04
7.42
7.83
8.25
8.61
8.75
8.56
7.97
7.05
5.89
4.60
3.27
1.92
0.61
-0.60
-1.61
-2.39
-3.01
-3.67
-4.56
-5.82
-7.42
-9.12
-10.62
-11.58
-11.75
-11.01
-9.39
-7.04
-4.28
-1.53
0.78
2.32
2.99
2.93
2.47
1.93
1.49
1.17
0.91
0.69
0.60
0.76
1.28
2.15
3.21
4.20
4.90
5.23
5.20
4.88
4.37
3.79
3.19
2.63
2.12
1.62
1.09
0.48
-0.18
-0.84
-1.45
-2.04
-2.72
-3.61
-4.74
-6.01
-7.18
-7.98
-8.20
-7.76
-6.73
-5.27
-3.59
-1.88
-0.28
1.13
2.31
3.23
3.84
4.09
3.94
3.42
2.65
1.90
1.42
1.38
1.83
2.65
3.66
4.66
5.55
6.28
6.81
7.09
7.04
6.55
5.58
4.20
2.59
1.02
-0.29
-1.21
-1.81
-2.29
-2.88
-3.78
-5.02
-6.46
-7.83
-8.81
-9.14
-8.68
-7.46
-5.64
-3.49
-1.33
0.58
2.07
3.13
3.84
4.33
4.65
4.82
4.78
4.45
3.83
3.03
2.21
1.62
1.41
1.62
2.13
2.74
3.21
3.41
3.28
2.89
2.35
1.72
1.01
0.17
-0.80
-1.85
-2.83
-3.64
-4.25
-4.77
-5.40
-6.30
-7.53
-8.95
-10.33
-11.39
-11.90
-11.72
-10.82
-9.23
-7.10
-4.66
-2.20
-0.02
1.64
2.67
3.13
3.23
3.20
3.22
3.39
3.68
4.05
4.43
4.80
5.15
5.50
5.80
6.02
6.12
6.10
5.99
5.91
5.94
6.10
6.30
6.35
6.04
5.24
3.99
2.46
0.96
-0.27
-1.17
-1.83
-2.50
-3.43
-4.70
-6.29
-8.00
-9.62
-10.93
-11.73
-11.87
-11.19
-9.69
-7.45
-4.76
-1.97
0.58
2.65
4.16
5.17
5.81
6.18
6.33
6.27
6.04
5.72
5.48
5.50
5.87
6.60
7.56
8.53
9.30
9.72
9.73
9.37
8.73
7.91
6.99
6.02
5.02
4.00
2.94
1.81
0.62
-0.58
-1.69
-2.65
-3.41
-4.02
-4.54
-5.08
-5.72
-6.57
-7.64
-8.95
-10.44
-11.92
-13.08
-13.55
-13.03
-11.44
-8.97
-6.06
-3.26
-1.03
0.42
1.12
1.30
1.26
1.23
1.34
1.59
1.91
2.22
2.50
2.79
3.17
3.76
4.59
5.60
6.59
7.31
7.55
7.27
6.57
5.66
4.74
3.92
3.15
2.34
1.38
0.26
-0.90
-1.89
-2.53
-2.76
-2.69
-2.52
-2.54
-2.91
-3.66
-4.67
-5.66
-6.41
-6.69
-6.44
-5.68
-4.48
-2.93
-1.16
0.71
2.54
4.19
5.53
6.41
6.72
6.42
5.57
4.37
3.13
2.17
1.69
1.70
2.10
2.67
3.27
3.82
4.31
4.77
5.11
5.24
5.06
4.57
3.86
3.08
2.35
1.65
0.91
0.02
-0.99
-2.06
-3.06
-3.93
-4.79
-5.79
-7.06
-8.54
-9.99
-11.05
-11.42
-10.96
-9.70
-7.85
-5.65
-3.37
-1.25
0.50
1.78
2.57
2.98
3.17
3.29
3.38
3.39
3.21
2.78
2.12
1.39
0.80
0.53
0.66
1.12
1.73
2.27
2.61
2.73
2.68
2.53
2.26
1.79
1.04
-0.00
-1.18
-2.27
-3.07
-3.55
-3.81
-4.06
-4.47
-5.13
-6.05
-7.17
-8.38
-9.52
-10.36
-10.64
-10.13
-8.80
-6.79
-4.41
-2.02
0.10
1.80
3.07
3.96
4.51
4.74
4.70
4.47
4.17
3.94
3.88
4.04
4.42
5.01
5.77
6.59
7.29
7.69
7.65
7.16
6.37
5.53
4.85
4.41
4.11
3.74
3.17
2.38
1.51
0.71
0.06
-0.48
-1.03
-1.76
-2.71
-3.86
-5.14
-6.49
-7.88
-9.28
-10.57
-11.56
-11.90
-11.31
-9.69
-7.18
-4.18
-1.23
1.23
2.93
3.89
4.36
4.63
4.86
5.13
5.34
5.37
5.18
4.83
4.47
4.26
4.29
4.56
4.98
5.44
5.82
6.06
6.12
6.01
5.73
5.31
4.78
4.17
3.46
2.60
1.57
0.36
-0.98
-2.28
-3.35
-4.03
-4.25
-4.12
-3.91
-3.91
-4.35
-5.35
-6.81
-8.53
-10.24
-11.66
-12.54
-12.68
-11.97
-10.44
-8.27
-5.72
-3.17
-0.96
0.67
1.67
2.17
2.33
2.34
2.25
2.10
1.85
1.57
1.37
1.43
1.87
2.72
3.88
5.14
6.34
7.34
8.15
8.81
9.32
9.62
9.58
9.07
8.03
6.60
5.02
3.60
2.52
1.81
1.32
0.81
0.10
-0.89
-2.12
-3.44
-4.73
-5.90
-6.85
-7.46
-7.58
-7.08
-5.89
-4.09
-1.92
0.34
2.38
3.93
4.86
5.13
4.83
4.13
3.22
2.23
1.27
0.40
-0.37
-0.97
-1.31
-1.33
-1.02
-0.53
-0.03
0.28
0.31
0.09
-0.25
-0.59
-0.88
-1.20
-1.61
-2.13
-2.67
-3.13
-3.44
-3.67
-4.00
-4.64
-5.71
-7.16
-8.83
-10.42
-11.65
-12.28
-12.16
-11.27
-9.69
-7.61
-5.25
-2.83
-0.53
1.55
3.34
4.81
5.85
6.37
6.33
5.79
4.93
4.01
3.33
3.07
3.24
3.67
4.11
4.35
4.37
4.29
4.32
4.57
4.94
5.20
5.07
4.42
3.31
1.97
0.66
-0.43
-1.30
-2.04
-2.83
-3.78
-4.90
-6.14
-7.38
-8.51
-9.43
-10.07
-10.33
-10.09
-9.24
-7.78
-5.82
-3.63
-1.53
0.21
1.47
2.33
2.92
3.33
3.59
3.60
3.30
2.69
1.93
1.23
0.82
0.85
1.39
2.36
3.64
5.02
6.27
7.22
7.80
8.02
7.99
7.79
7.43
6.88
6.08
5.06
3.92
2.79
1.77
0.85
-0.03
-0.99
-2.09
-3.33
-4.67
-6.04
-7.37
-8.54
-9.44
-9.89
-9.77
-9.01
-7.73
-6.08
-4.33
-2.66
-1.16
0.18
1.41
2.53
3.46
4.09
4.28
3.98
3.29
2.43
1.62
1.07
0.91
1.19
1.84
2.73
3.70
4.52
5.05
5.22
5.09
4.78
4.42
4.01
3.50
2.84
2.05
1.25
0.62
0.30
0.26
0.38
0.47
0.34
-0.11
-0.92
-2.11
-3.60
-5.24
-6.77
-7.86
-8.21
-7.68
-6.30
-4.33
-2.09
0.08
1.91
3.29
4.18
4.67
4.85
4.81
4.63
4.32
3.90
3.39
2.90
2.55
2.48
2.80
3.46
4.34
5.20
5.86
6.21
6.22
5.95
5.51
4.98
4.37
3.70
2.94
2.06
1.03
-0.12
-1.34
-2.56
-3.72
-4.83
-5.98
-7.23
-8.60
-9.97
-11.10
-11.74
-11.65
-10.78
-9.21
-7.18
-4.98
-2.86
-1.05
0.34
1.23
1.64
1.65
1.37
0.96
0.61
0.46
0.58
0.96
1.48
2.04
2.52
2.85
3.02
3.07
3.01
2.90
2.78
2.66
2.54
2.35
2.05
1.57
0.93
0.20
-0.54
-1.22
-1.79
-2.26
-2.68
-3.10
-3.61
-4.31
-5.23
-6.31
-7.31
-7.93
-7.84
-6.90
-5.22
-3.11
-1.05
0.64
1.76
2.34
2.57
2.63
2.62
2.54
2.39
2.16
1.96
1.92
2.18
2.79
3.63
4.55
5.33
5.86
6.10
6.17
6.17
6.20
6.24
6.16
5.79
5.02
3.85
2.37
0.77
-0.78
-2.17
-3.32
-4.16
-4.64
-4.77
-4.64
-4.44
-4.45
-4.90
-5.86
-7.16
-8.49
-9.50
-9.91
-9.60
-8.62
-7.07
-5.15
-3.04
-0.94
0.91
2.36
3.32
3.84
4.10
4.29
4.56
4.95
5.38
5.71
5.84
5.73
5.45
5.09
4.82
4.71
4.81
5.03
5.23
5.27
5.09
4.74
4.38
4.14
4.08
4.12
4.12
3.90
3.49
2.95
2.41
1.94
1.50
0.99
0.32
-0.49
-1.37
-2.23
-3.09
-4.05
-5.28
-6.83
-8.59
-10.25
-11.42
-11.78
-11.23
-9.97
-8.30
-6.57
-4.93
-3.43
-2.02
-0.68
0.50
1.38
1.85
1.93
1.78
1.62
1.64
1.91
2.39
2.95
3.48
3.89
4.14
4.23
4.14
3.90
3.56
3.15
2.72
2.26
1.74
1.15
0.56
0.07
-0.20
-0.16
0.13
0.58
1.04
1.42
1.62
1.59
1.24
0.43
-0.87
-2.60
-4.44
-5.97
-6.80
-6.68
-5.61
-3.83
-1.69
0.47
2.44
4.10
5.38
6.25
6.65
6.56
6.01
5.14
4.16
3.26
2.60
2.21
2.06
2.10
2.31
2.66
3.10
3.49
3.64
3.45
2.89
2.06
1.14
0.23
-0.61
-1.37
-2.04
-2.58
-2.89
-2.94
-2.79
-2.58
-2.51
-2.75
-3.43
-4.55
-6.01
-7.57
-8.88
-9.54
-9.28
-8.03
-5.98
-3.53
-1.10
0.96
2.51
3.50
4.02
4.14
3.97
3.65
3.25
2.86
2.47
2.03
1.50
0.92
0.39
0.06
0.01
0.21
0.55
0.84
0.99
0.96
0.81
0.64
0.50
0.38
0.24
0.05
-0.21
-0.50
-0.82
-1.17
-1.52
-1.93
-2.41
-2.99
-3.70
-4.56
-5.53
-6.57
-7.59
-8.44
-8.95
-8.93
-8.26
-6.86
-4.78
-2.26
0.38
2.73
4.48
5.45
5.64
5.21
4.42
3.53
2.75
2.26
2.13
2.38
2.91
3.62
4.34
4.96
5.42
5.73
5.93
6.07
6.12
6.09
5.93
5.62
5.15
4.49
3.66
2.68
1.64
0.62
-0.30
-1.13
-1.90
-2.70
-3.59
-4.55
-5.57
-6.62
-7.78
-9.17
-10.93
-13.08
-15.42
-17.54
-18.98
-19.37
-18.60
-16.90
-14.66
-12.35
-10.27
-8.58
-7.28
-6.33
-5.82
-5.89
-6.68
-8.15
-10.07
-12.05
-13.73
-14.95
-15.81
-16.64
-17.71
-19.06
-20.34
-20.99
-20.47
-18.66
-15.99
-13.41
-11.99
-12.51
-15.16
-19.54
-24.95
-30.70
-36.41
-41.96
-47.27
-52.11
-56.10
-58.88
-60.39
-61.04
-61.53
-62.56
-64.49
-67.28
-70.73
-74.85
-80.16
-87.52
-97.64
-110.29
-123.56
-133.95
-137.36
-130.67
-113.41
-88.35
-60.73
-36.49
-20.12
-13.42
-15.61
-24.43
-37.63
-53.73
-71.97
-91.71
-111.90
-131.19
-148.58
-163.93
-178.04
-191.85
-205.42
-217.51
-225.74
-227.57
-221.53
-207.93
-188.75
-166.88
-145.06
-125.09
-107.69
-92.63
-79.26
-66.80
-54.50
-41.57
-27.19
-10.56
8.98
31.61
56.73
82.90
107.90
129.39
145.59
156.02
161.67
164.55
166.79
169.81
173.85
178.23
182.00
184.60
186.09
186.94
187.61
188.21
188.39
187.58
185.22
180.98
174.86
167.12
158.12
148.25
137.78
126.77
115.22
103.05
90.35
77.47
64.94
53.30
42.92
33.90
26.27
20.11
15.72
13.47
13.54
15.62
18.83
22.07
24.43
25.63
26.20
27.20
29.73
34.46
41.33
49.73
58.77
67.66
75.99
83.80
91.47
99.72
109.38
121.15
135.15
150.67
165.93
178.52
186.21
187.74
183.19
173.73
160.77
145.29
127.54
107.54
85.84
63.86
43.38
25.63
10.58
-3.13
-17.09
-31.97
-46.80
-59.38
-67.44
-70.03
-68.03
-63.82
-60.18
-59.19
-61.62
-67.10
-74.56
-82.78
-90.67
-97.28
-101.71
-103.27
-101.60
-96.82
-89.61
-81.12
-72.71
-65.61
-60.74
-58.44
-58.46
-60.07
-62.29
-64.30
-65.60
-66.22
-66.51
-66.85
-67.33
-67.60
-67.01
-64.94
-61.10
-55.81
-49.84
-44.15
-39.59
-36.62
-35.32
-35.44
-36.56
-38.25
-40.11
-41.75
-42.89
-43.37
-43.27
-43.12
-43.75
-46.02
-50.41
-56.66
-63.60
-69.57
-72.93
-72.80
-69.30
-63.50
-56.96
-51.12
-46.85
-44.31
-43.05
-42.23
-40.94
-38.27
-33.47
-26.05
-15.86
-3.18
11.28
26.48
41.37
55.07
67.11
77.33
85.76
92.47
97.43
100.61
102.00
101.73
100.05
97.23
93.46
88.87
83.50
77.37
70.51
62.94
54.81
46.40
38.23
30.95
25.20
21.46
19.89
20.41
22.73
26.51
31.38
36.88
42.49
47.80
52.68
57.39
62.55
68.70
75.99
83.94
91.65
98.12
102.69
105.20
105.81
104.77
102.16
97.83
91.64
83.56
73.69
62.16
49.00
34.24
18.08
1.26
-15.01
-29.24
-40.34
-48.17
-53.73
-58.83
-65.29
-74.06
-84.65
-95.23
-103.29
-106.64
-104.19
-96.35
-84.74
-71.53
-58.68
-47.40
-37.97
-29.99
-22.73
-15.46
-7.72
0.71
9.83
19.51
29.45
39.07
47.61
54.21
58.28
59.73
59.11
57.46
55.95
55.49
56.47
58.63
61.32
63.79
65.37
65.60
64.15
60.64
54.65
45.72
33.51
18.19
0.76
-16.85
-32.10
-42.43
-46.11
-42.88
-33.96
-21.64
-8.45
3.59
13.44
20.96
26.64
31.08
34.78
37.96
40.64
42.72
43.97
44.04
42.46
38.81
32.88
25.03
16.34
8.45
3.20
1.99
5.17
11.89
20.28
28.09
33.37
35.11
33.27
28.71
22.64
16.24
10.33
5.17
0.59
-3.91
-8.84
-14.52
-20.79
-26.80
-30.99
-31.35
-26.07
-14.34
2.94
22.95
41.66
55.06
60.57
57.81
48.35
34.75
19.27
3.28
-12.64
-28.11
-42.42
-54.62
-63.96
-70.52
-75.23
-79.42
-83.99
-88.86
-92.95
-94.87
-93.62
-89.19
-82.43
-74.66
-67.08
-60.29
-54.22
-48.26
-41.71
-34.09
-25.46
-16.38
-7.64
0.16
6.87
12.89
19.01
26.05
34.61
44.83
56.34
68.28
79.39
88.28
93.82
95.40
93.02
87.19
78.79
68.98
59.24
51.33
47.20
48.56
56.44
70.68
89.69
110.47
129.10
141.57
144.88
138.02
122.30
101.03
78.29
57.49
40.39
26.89
15.73
5.50
-4.64
-14.71
-24.19
-32.29
-38.14
-40.87
-40.01
-36.02
-30.68
-26.91
-27.91
-35.91
-51.16
-71.54
-92.95
-110.27
-118.61
-114.63
-97.78
-70.70
-38.86
-8.92
13.47
25.50
27.99
24.57
19.90
17.54
18.91
23.18
28.32
32.19
33.24
30.65
24.15
13.87
0.34
-15.23
-30.79
-43.78
-51.68
-52.98
-47.81
-38.21
-27.52
-19.33
-16.30
-19.29
-27.19
-37.34
-46.46
-51.66
-51.17
-44.73
-33.42
-19.04
-3.40
12.25
27.36
41.81
55.23
66.74
74.93
78.49
76.83
70.43
60.63
48.94
36.50
23.79
10.99
-1.56
-12.99
-22.03
-27.54
-29.07
-27.12
-22.97
-18.08
-13.62
-10.21
-7.96
-6.69
-6.06
-5.73
-5.37
-4.82
-4.26
-4.30
-5.76
-9.22
-14.54
-20.63
-25.85
-28.68
-28.54
-26.09
-22.89
-20.67
-20.43
-22.11
-24.71
-27.02
-28.25
-28.37
-27.92
-27.51
-27.32
-26.94
-25.68
-22.94
-18.55
-12.66
-5.40
3.39
14.13
27.02
41.32
55.15
65.82
70.88
69.14
61.24
49.32
36.06
23.65
13.08
4.22
-3.70
-11.55
-19.88
-28.75
-37.86
-46.56
-54.14
-59.91
-63.40
-64.45
-63.25
-60.19
-55.70
-50.23
-44.17
-38.01
-32.33
-27.67
-24.38
-22.52
-21.80
-21.72
-21.76
-21.54
-20.87
-19.76
-18.26
-16.42
-14.20
-11.53
-8.32
-4.69
-0.99
2.23
4.39
5.01
3.96
1.49
-1.87
-5.50
-8.87
-11.76
-14.27
-16.76
-19.60
-22.99
-26.68
-30.03
-32.07
-31.90
-29.00
-23.49
-16.07
-7.84
0.09
6.88
12.11
15.78
18.11
19.43
20.06
20.23
20.05
19.56
18.72
17.55
16.14
14.65
13.31
12.32
11.79
11.69
11.87
12.04
11.89
11.15
9.61
7.26
4.19
0.64
-3.05
-6.60
-9.84
-12.75
-15.53
-18.48
-21.90
-25.87
-30.11
-33.95
-36.50
-36.95
-34.88
-30.41
-24.19
-17.15
-10.19
-3.97
1.22
5.37
8.66
11.25
13.20
14.52
15.22
15.37
15.21
15.14
15.63
17.09
19.74
23.50
28.04
32.81
37.18
40.43
41.84
40.80
36.87
29.99
20.64
9.76
-1.35
-11.45
-19.56
-25.27
-28.78
-30.66
-31.57
-31.91
-31.59
-30.10
-26.78
-21.15
-13.24
-3.67
6.56
16.26
24.46
30.52
34.19
35.55
34.92
32.77
29.66
26.16
22.69
19.43
16.37
13.38
10.41
7.58
5.15
3.47
2.76
3.07
4.17
5.61
6.86
7.42
6.94
5.34
2.80
-0.28
-3.42
-6.23
-8.55
-10.48
-12.36
-14.67
-17.85
-22.20
-27.65
-33.77
-39.73
-44.51
-47.17
-47.19
-44.74
-40.62
-35.92
-31.48
-27.58
-23.88
-19.83
-15.16
-10.32
-6.40
-4.69
-6.12
-10.70
-17.48
-24.79
-30.78
-33.91
-33.25
-28.61
-20.41
-9.56
2.81
15.64
28.01
39.25
48.85
56.32
61.22
63.19
62.03
57.93
51.52
43.77
35.83
28.70
23.04
19.07
16.74
15.92
16.59
18.80
22.60
27.77
33.80
39.96
45.62
50.38
54.17
56.97
58.58
58.43
55.67
49.52
39.61
26.38
10.94
-5.23
-20.74
-34.56
-46.07
-54.88
-60.52
-62.54
-60.68
-55.19
-47.10
-38.05
-29.88
-24.00
-21.13
-21.22
-23.81
-28.44
-34.77
-42.46
-50.93
-59.11
-65.52
-68.66
-67.41
-61.40
-51.03
-37.32
-21.57
-5.12
10.72
24.63
35.16
40.85
40.63
34.37
23.28
9.80
-2.99
-12.29
-16.51
-15.56
-10.61
-3.49
4.09
10.83
15.90
18.74
19.18
17.59
15.14
13.56
14.59
19.21
27.14
36.93
46.49
53.82
57.39
56.27
50.04
38.72
22.95
4.14
-15.60
-33.88
-48.77
-59.40
-66.21
-70.51
-73.91
-77.51
-81.58
-85.45
-87.89
-87.70
-84.33
-78.27
-71.00
-64.51
-60.60
-60.08
-62.56
-66.60
-70.45
-72.70
-72.92
-71.68
-70.22
-69.82
-71.15
-73.96
-76.96
-78.08
-74.98
-65.80
-49.99
-28.81
-5.33
16.36
32.36
40.25
39.91
33.40
24.25
16.23
12.34
14.13
21.70
33.97
49.16
65.14
79.78
91.32
98.69
101.83
101.71
100.10
99.10
100.45
105.06
112.79
122.74
133.66
144.59
155.13
165.25
174.92
183.68
190.49
194.00
193.11
187.36
177.12
163.32
147.14
129.70
111.90
94.58
78.69
65.21
55.04
48.63
45.72
45.41
46.57
48.40
50.86
54.71
60.94
70.02
81.29
92.96
102.76
108.81
110.26
107.49
101.75
94.73
88.30
84.34
84.56
89.92
99.99
112.62
124.22
130.94
130.08
121.14
105.79
87.07
68.01
50.55
35.16
21.11
7.10
-8.18
-25.76
-46.10
-68.91
-92.99
-116.33
-136.54
-151.57
-160.45
-163.52
-162.27
-158.58
-153.96
-149.07
-143.73
-137.26
-128.97
-118.54
-106.27
-93.05
-80.27
-69.33
-61.11
-55.36
-50.64
-44.92
-36.68
-25.93
-14.54
-5.50
-1.63
-4.28
-12.79
-24.94
-38.03
-49.83
-59.07
-65.26
-68.22
-67.86
-64.38
-58.57
-52.13
-47.35
-46.52
-51.02
-60.81
-74.40
-89.42
-103.38
-114.49
-121.97
-126.13
-127.96
-128.57
-128.87
-129.33
-129.92
-130.33
-130.09
-128.69
-125.68
-120.71
-113.63
-104.60
-94.25
-83.55
-73.67
-65.62
-59.97
-56.65
-55.13
-54.59
-54.20
-53.26
-51.14
-47.33
-41.46
-33.36
-23.22
-11.66
0.47
12.27
22.98
32.11
39.35
44.48
47.29
47.55
45.17
40.26
33.24
24.74
15.52
6.36
-2.06
-9.13
-14.43
-17.63
-18.56
-17.24
-13.96
-9.17
-3.43
2.72
8.87
14.72
20.09
24.82
28.76
31.73
33.53
34.02
33.16
30.99
27.69
23.53
18.82
13.93
9.16
4.71
0.68
-2.91
-6.00
-8.46
-10.14
-10.95
-10.95
-10.36
-9.50
-8.70
-8.18
-8.07
-8.40
-9.18
-10.34
-11.59
-12.50
-12.53
-11.26
-8.64
-5.12
-1.54
1.21
2.46
1.95
-0.17
-3.46
-7.44
-11.62
-15.54
-18.72
-20.67
-20.92
-19.27
-15.82
-11.02
-5.56
-0.21
4.39
7.87
10.12
11.39
12.05
12.57
13.27
14.20
15.13
15.63
15.27
13.78
11.17
7.69
3.82
0.15
-2.74
-4.33
-4.35
-2.81
-0.14
3.03
5.98
8.19
9.44
9.78
9.42
8.52
7.15
5.26
2.79
-0.21
-3.57
-7.03
-10.31
-13.15
-15.39
-16.89
-17.56
-17.30
-16.12
-14.14
-11.68
-9.19
-7.15
-5.96
-5.81
-6.62
-8.08
-9.80
-11.33
-12.39
-12.85
-12.75
-12.29
-11.66
-10.96
-10.13
-8.93
-7.09
-4.44
-1.09
2.60
6.06
8.77
10.38
10.77
10.05
8.42
6.11
3.36
0.42
-2.45
-4.96
-6.90
-8.16
-8.76
-8.76
-8.26
-7.33
-6.06
-4.60
-3.14
-1.90
-1.06
-0.69
-0.77
-1.19
-1.83
-2.61
-3.47
-4.40
-5.38
-6.37
-7.32
-8.17
-8.85
-9.27
-9.29
-8.78
-7.62
-5.79
-3.42
-0.77
1.84
4.08
5.72
6.63
6.77
6.23
5.12
3.61
1.87
0.08
-1.58
-2.97
-3.92
-4.34
-4.17
-3.47
-2.37
-1.03
0.38
1.74
2.94
3.85
4.33
4.27
3.60
2.38
0.78
-0.94
-2.53
-3.77
-4.59
-4.99
-5.09
-5.08
-5.17
-5.55
-6.30
-7.33
-8.39
-9.04
-8.88
-7.67
-5.49
-2.74
0.01
2.20
3.57
4.18
4.34
4.40
4.58
4.84
5.02
4.90
4.45
3.84
3.39
3.40
4.01
5.13
6.45
7.60
8.27
8.35
7.96
7.31
6.64
6.04
5.47
4.78
3.89
2.81
1.74
0.87
0.35
0.15
0.13
0.12
0.11
0.22
0.70
1.71
3.26
5.13
7.01
8.63
9.88
10.83
11.63
12.40
13.09
13.56
13.63
13.20
12.32
11.15
9.98
9.04
8.48
8.30
8.35
8.40
8.25
7.82
7.14
6.33
5.58
4.98
4.59
4.41
4.36
4.37
4.33
4.05
3.37
2.12
0.25
-2.09
-4.54
-6.61
-7.81
-7.83
-6.71
-4.76
-2.52
-0.55
0.81
1.47
1.58
1.41
1.17
0.91
0.60
0.20
-0.28
-0.75
-1.08
-1.17
-0.99
-0.61
-0.15
0.22
0.37
0.18
-0.35
-1.21
-2.25
-3.28
-4.07
-4.47
-4.45
-4.13
-3.78
-3.69
-4.16
-5.31
-7.12
-9.36
-11.62
-13.45
-14.41
-14.21
-12.72
-10.08
-6.63
-2.90
0.55
3.24
4.91
5.58
5.49
4.99
4.40
3.87
3.36
2.75
1.94
0.97
0.02
-0.70
-1.03
-0.98
-0.66
-0.26
0.11
0.45
0.85
1.41
2.09
2.76
3.22
3.30
2.95
2.26
1.36
0.41
-0.56
-1.60
-2.76
-4.07
-5.41
-6.52
-7.10
-6.96
-6.05
-4.56
-2.77
-1.03
0.45
1.58
2.43
3.07
3.58
3.92
4.04
3.86
3.42
2.81
2.19
1.72
1.48
1.48
1.72
2.13
2.68
3.27
3.79
4.14
4.24
4.10
3.79
3.40
3.02
2.64
2.23
1.72
1.12
0.47
-0.19
-0.85
-1.58
-2.45
-3.55
-4.85
-6.22
-7.48
-8.43
-8.92
-8.83
-8.17
-7.01
-5.50
-3.82
-2.19
-0.79
0.24
0.90
1.27
1.52
1.75
2.01
2.26
2.40
2.33
2.11
1.82
1.59
1.51
1.54
1.61
1.64
1.61
1.58
1.62
1.72
1.78
1.68
1.34
0.79
0.17
-0.31
-0.54
-0.49
-0.29
-0.15
-0.29
-0.86
-1.89
-3.35
-5.07
-6.85
-8.42
-9.54
-10.02
-9.80
-8.97
-7.68
-6.13
-4.48
-2.80
-1.13
0.50
2.00
3.27
4.19
4.71
4.81
4.58
4.10
3.48
2.86
2.37
2.14
2.27
2.75
3.48
4.26
4.89
5.21
5.19
4.91
4.49
4.07
3.71
3.40
3.09
2.72
2.28
1.83
1.40
0.97
0.45
-0.31
-1.41
-2.76
-4.07
-4.97
-5.09
-4.32
-2.84
-1.05
0.59
1.79
2.53
2.94
3.24
3.54
3.75
3.72
3.29
2.46
1.33
0.12
-0.98
-1.85
-2.46
-2.81
-2.88
-2.68
-2.24
-1.65
-1.02
-0.49
-0.15
-0.01
-0.08
-0.31
-0.69
-1.15
-1.61
-1.93
-2.02
-1.86
-1.58
-1.42
-1.67
-2.53
-3.99
-5.86
-7.77
-9.29
-10.04
-9.81
-8.67
-6.84
-4.72
-2.69
-1.04
0.10
0.77
1.11
1.25
1.30
1.32
1.36
1.44
1.58
1.77
1.98
2.18
2.38
2.60
2.87
3.21
3.59
3.93
4.19
4.37
4.45
4.44
4.30
3.94
3.31
2.43
1.44
0.55
-0.06
-0.36
-0.42
-0.43
-0.63
-1.22
-2.27
-3.74
-5.43
-7.08
-8.42
-9.17
-9.19
-8.42
-6.92
-4.90
-2.60
-0.31
1.71
3.28
4.32
4.85
4.91
4.61
4.05
3.37
2.70
2.17
1.85
1.76
1.85
2.05
2.35
2.76
3.31
3.98
4.75
5.50
6.14
6.56
6.66
6.35
5.57
4.32
2.75
1.11
-0.32
-1.35
-1.94
-2.17
-2.25
-2.35
-2.59
-3.08
-3.89
-5.11
-6.73
-8.59
-10.33
-11.52
-11.82
-11.15
-9.68
-7.81
-5.94
-4.33
-3.04
-1.98
-1.02
-0.14
0.62
1.14
1.32
1.19
0.84
0.45
0.14
0.07
0.28
0.83
1.71
2.84
4.05
5.16
5.96
6.32
6.25
5.78
5.08
4.29
3.51
2.85
2.37
2.05
1.90
1.85
1.86
1.87
1.85
1.74
1.47
0.93
0.04
-1.25
-2.84
-4.52
-6.02
-7.04
-7.39
-6.97
-5.78
-3.97
-1.73
0.69
3.00
4.98
6.46
7.37
7.74
7.66
7.25
6.63
5.89
5.09
4.34
3.72
3.36
3.34
3.64
4.19
4.77
5.19
5.28
5.00
4.43
3.71
2.95
2.21
1.50
0.84
0.31
0.02
0.03
0.26
0.53
0.54
0.05
-1.04
-2.67
-4.57
-6.48
-8.06
-9.08
-9.37
-8.85
-7.61
-5.88
-4.01
-2.35
-1.11
-0.33
0.15
0.50
0.89
1.29
1.62
1.74
1.60
1.28
0.92
0.69
0.65
0.78
1.01
1.26
1.45
1.58
1.66
1.73
1.79
1.84
1.86
1.81
1.68
1.51
1.33
1.19
1.07
0.93
0.65
0.11
-0.80
-2.11
-3.75
-5.55
-7.31
-8.82
-9.89
-10.36
-10.10
-9.05
-7.33
-5.17
-2.93
-0.94
0.60
1.73
2.59
3.34
4.03
4.52
4.68
4.40
3.77
3.02
2.39
2.04
2.00
2.18
2.48
2.82
3.18
3.58
4.01
4.43
4.79
4.98
4.93
4.57
3.90
2.98
1.95
0.98
0.23
-0.23
-0.46
-0.64
-1.01
-1.79
-3.06
-4.72
-6.52
-8.11
-9.11
-9.27
-8.47
-6.79
-4.44
-1.74
0.96
3.37
5.31
6.69
7.53
7.88
7.81
7.36
6.62
5.65
4.59
3.59
2.80
2.31
2.15
2.23
2.46
2.69
2.85
2.93
2.96
3.01
3.11
3.26
3.39
3.42
3.30
3.00
2.53
1.92
1.24
0.52
-0.23
-0.98
-1.77
-2.65
-3.68
-4.89
-6.24
-7.57
-8.66
-9.23
-9.05
-8.07
-6.40
-4.31
-2.11
-0.11
1.53
2.75
3.56
3.96
3.92
3.41
2.41
1.07
-0.38
-1.60
-2.30
-2.35
-1.84
-1.00
-0.11
0.62
1.12
1.44
1.66
1.88
2.08
2.23
2.27
2.21
2.05
1.85
1.67
1.55
1.50
1.48
1.44
1.23
0.73
-0.13
-1.33
-2.70
-3.91
-4.66
-4.66
-3.83
-2.31
-0.39
1.53
3.19
4.46
5.40
6.15
6.77
7.18
7.24
6.81
5.90
4.68
3.40
2.26
1.38
0.77
0.41
0.32
0.56
1.13
1.92
2.66
3.06
2.90
2.17
1.03
-0.28
-1.52
-2.56
-3.36
-3.92
-4.31
-4.59
-4.85
-5.24
-5.89
-6.83
-7.92
-8.88
-9.38
-9.17
-8.21
-6.71
-4.99
-3.35
-1.99
-0.92
-0.03
0.79
1.55
2.20
2.64
2.83
2.81
2.69
2.55
2.41
2.18
1.80
1.28
0.74
0.42
0.48
0.94
1.63
2.29
2.69
2.71
2.39
1.82
1.16
0.48
-0.17
-0.76
-1.23
-1.54
-1.66
-1.71
-1.86
-2.35
-3.34
-4.88
-6.81
-8.77
-10.28
-10.90
-10.38
-8.77
-6.38
-3.69
-1.15
0.93
2.45
3.48
4.13
4.52
4.72
4.75
4.63
4.35
3.97
3.53
3.14
2.87
2.78
2.90
3.19
3.60
4.02
4.38
4.64
4.75
4.70
4.46
4.06
3.54
2.95
2.37
1.81
1.27
0.75
0.25
-0.21
-0.60
-0.97
-1.42
-2.04
-2.94
-4.10
-5.40
-6.60
-7.44
-7.70
-7.26
-6.13
-4.50
-2.63
-0.81
0.75
1.95
2.81
3.44
3.97
4.48
4.96
5.29
5.35
5.04
4.42
3.69
3.12
2.93
3.20
3.84
4.58
5.13
5.31
5.09
4.61
4.06
3.65
3.47
3.42
3.33
2.96
2.22
1.16
0.02
-0.91
-1.45
-1.60
-1.59
-1.74
-2.38
-3.62
-5.39
-7.38
-9.20
-10.53
-11.11
-10.90
-9.97
-8.51
-6.74
-4.86
-3.06
-1.47
-0.19
0.74
1.31
1.55
1.48
1.13
0.54
-0.26
-1.14
-1.94
-2.49
-2.64
-2.32
-1.56
-0.52
0.62
1.66
2.51
3.05
3.27
3.18
2.83
2.34
1.85
1.46
1.24
1.18
1.18
1.15
0.98
0.62
0.11
-0.53
-1.21
-1.87
-2.42
-2.78
-2.81
-2.46
-1.68
-0.55
0.82
2.31
3.86
5.49
7.16
8.75
9.99
10.57
10.31
9.22
7.58
5.79
4.19
2.95
2.09
1.55
1.29
1.31
1.62
2.12
2.62
2.86
2.71
2.12
1.21
0.13
-0.96
-1.95
-2.71
-3.15
-3.25
-3.14
-3.09
-3.46
-4.49
-6.13
-8.06
-9.72
-10.59
-10.40
-9.21
-7.34
-5.25
-3.28
-1.63
-0.32
0.67
1.39
1.84
2.00
1.92
1.65
1.29
0.93
0.66
0.52
0.55
0.76
1.14
1.63
2.13
2.56
2.84
2.94
2.86
2.58
2.08
1.35
0.41
-0.63
-1.64
-2.46
-3.04
-3.42
-3.76
-4.24
-4.98
-5.97
-7.10
-8.14
-8.85
-9.01
-8.46
-7.17
-5.24
-2.89
-0.46
1.71
3.35
4.33
4.70
4.65
4.39
4.07
3.74
3.40
3.06
2.70
2.39
2.15
1.99
1.94
2.02
2.25
2.69
3.33
4.15
5.00
5.71
6.12
6.13
5.73
5.01
4.04
2.94
1.80
0.71
-0.28
-1.13
-1.92
-2.83
-4.08
-5.84
-8.10
-10.52
-12.54
-13.54
-13.11
-11.23
-8.29
-4.97
-1.89
0.54
2.28
3.54
4.57
5.57
6.49
7.18
7.45
7.26
6.72
6.06
5.47
5.09
4.91
4.91
5.05
5.30
5.60
5.84
5.86
5.54
4.89
4.08
3.40
3.04
2.99
3.04
2.91
2.41
1.57
0.65
-0.09
-0.49
-0.62
-0.77
-1.30
-2.47
-4.28
-6.47
-8.61
-10.30
-11.19
-11.17
-10.29
-8.73
-6.78
-4.69
-2.73
-1.05
0.24
1.15
1.74
2.07
2.23
2.22
2.11
1.91
1.74
1.65
1.69
1.90
2.24
2.72
3.30
3.95
4.57
5.05
5.28
5.21
4.88
4.35
3.73
3.04
2.31
1.57
0.89
0.35
-0.00
-0.24
-0.56
-1.22
-2.39
-4.05
-5.96
-7.69
-8.83
-9.09
-8.39
-6.86
-4.76
-2.37
0.09
2.41
4.46
6.11
7.27
7.90
8.04
7.81
7.30
6.65
5.94
5.24
4.63
4.24
4.17
4.48
5.12
5.94
6.73
7.30
7.52
7.35
6.83
6.03
5.07
4.01
2.94
1.92
0.97
0.09
-0.79
-1.75
-2.92
-4.38
-6.18
-8.21
-10.25
-11.92
-12.86
-12.84
-11.82
-10.01
-7.72
-5.30
-3.06
-1.14
0.41
1.59
2.39
2.83
2.95
2.83
2.55
2.19
1.80
1.43
1.15
1.06
1.25
1.79
2.62
3.59
4.53
5.24
5.64
5.72
5.50
4.99
4.26
3.36
2.40
1.53
0.85
0.38
0.02
-0.44
-1.19
-2.40
-4.05
-5.99
-7.89
-9.37
-10.04
-9.66
-8.25
-6.06
-3.56
-1.23
0.52
1.59
2.11
2.39
2.69
3.10
3.52
3.73
3.61
3.18
2.65
2.29
2.27
2.65
3.32
4.15
5.00
5.78
6.42
6.84
6.95
6.72
6.17
5.39
4.46
3.44
2.41
1.41
0.49
-0.27
-0.86
-1.35
-1.89
-2.61
-3.58
-4.77
-6.06
-7.34
-8.51
-9.53
-10.32
-10.72
-10.48
-9.42
-7.44
-4.75
-1.75
1.07
3.28
4.69
5.39
5.66
5.77
5.90
6.05
6.12
6.02
5.76
5.47
5.36
5.58
6.14
6.93
7.75
8.35
8.61
8.47
8.02
7.40
6.74
6.18
5.76
5.49
5.29
5.05
4.66
4.04
3.21
2.25
1.30
0.45
-0.28
-1.03
-1.99
-3.34
-5.13
-7.22
-9.31
-11.07
-12.19
-12.47
-11.88
-10.55
-8.79
-7.03
-5.75
-5.25
-5.60
-6.51
-7.48
-7.99
-7.64
-6.34
-4.24
-1.65
1.06
3.60
5.73
7.33
8.32
8.71
8.54
7.88
6.84
5.55
4.14
2.69
1.21
-0.31
-1.87
-3.41
-4.72
-5.51
-5.54
-4.72
-3.18
-1.24
0.73
2.40
3.57
4.19
4.26
3.83
3.07
2.23
1.65
1.74
2.71
4.50
6.79
9.11
11.01
12.32
13.16
13.86
14.74
15.99
17.58
19.27
20.76
21.79
22.19
21.91
21.07
19.91
18.78
17.98
17.60
17.43
17.01
15.79
13.40
9.86
5.53
0.95
-3.44
-7.51
-11.36
-15.21
-19.11
-22.88
-26.19
-28.76
-30.58
-31.95
-33.29
-34.91
-36.75
-38.37
-39.09
-38.30
-35.76
-31.66
-26.59
-21.32
-16.53
-12.70
-9.98
-8.25
-7.22
-6.47
-5.52
-3.93
-1.46
1.85
5.60
9.12
11.78
13.23
13.57
13.33
13.22
13.73
14.94
16.42
17.46
17.36
15.74
12.63
8.44
3.83
-0.53
-4.01
-6.30
-7.38
-7.55
-7.35
-7.27
-7.66
-8.55
-9.65
-10.51
-10.71
-9.93
-8.02
-5.01
-1.08
3.46
8.16
12.47
15.86
17.91
18.50
17.83
16.34
14.58
12.95
11.69
10.80
10.19
9.77
9.52
9.49
9.66
9.93
10.07
9.76
8.77
7.08
4.83
2.36
0.05
-1.79
-3.04
-3.72
-3.96
-3.94
-3.80
-3.62
-3.52
-3.60
-3.95
-4.57
-5.30
-5.78
-5.64
-4.58
-2.64
-0.13
2.45
4.61
6.01
6.60
6.52
6.04
5.42
4.83
4.39
4.11
3.93
3.76
3.49
3.04
2.41
1.71
1.13
0.92
1.23
2.03
3.09
4.04
4.49
4.22
3.25
1.85
0.35
-0.98
-2.06
-3.00
-3.92
-4.90
-5.93
-6.97
-8.05
-9.25
-10.61
-12.03
-13.23
-13.79
-13.38
-11.88
-9.49
-6.60
-3.71
-1.18
0.75
2.04
2.76
3.06
3.08
2.95
2.76
2.53
2.29
2.08
1.98
2.10
2.52
3.28
4.33
5.56
6.82
7.97
8.91
9.50
9.66
9.24
8.20
6.63
4.77
2.96
1.49
0.42
-0.40
-1.30
-2.60
-4.43
-6.62
-8.73
-10.22
-10.69
-10.01
-8.33
-6.04
-3.53
-1.10
1.11
3.12
4.93
6.52
7.76
8.52
8.69
8.30
7.49
6.43
5.35
4.40
3.68
3.24
3.07
3.16
3.43
3.78
4.05
4.12
3.86
3.22
2.23
1.00
-0.34
-1.66
-2.86
-3.95
-5.00
-6.13
-7.45
-9.04
-10.83
-12.63
-14.06
-14.72
-14.31
-12.76
-10.35
-7.55
-4.90
-2.76
-1.28
-0.35
0.21
0.52
0.61
0.50
0.28
0.08
0.06
0.26
0.57
0.79
0.78
0.56
0.29
0.19
0.38
0.79
1.19
1.36
1.14
0.58
-0.18
-0.97
-1.66
-2.25
-2.79
-3.37
-4.05
-4.87
-5.81
-6.78
-7.62
-8.07
-7.81
-6.58
-4.31
-1.15
2.46
6.01
8.95
10.98
11.98
12.09
11.57
10.69
9.62
8.44
7.18
5.86
4.54
3.35
2.41
1.81
1.58
1.68
2.00
2.41
2.78
2.98
2.98
2.81
2.56
2.28
1.97
1.57
0.98
0.20
-0.68
-1.52
-2.25
-2.89
-3.63
-4.66
-6.11
-7.88
-9.64
-10.96
-11.41
-10.76
-9.08
-6.68
-4.04
-1.57
0.47
2.07
3.35
4.47
5.53
6.47
7.12
7.35
7.09
6.44
5.62
4.92
4.56
4.67
5.19
5.92
6.65
7.20
7.46
7.48
7.29
6.98
6.56
6.03
5.42
4.77
4.16
3.63
3.19
2.79
2.35
1.82
1.18
0.43
-0.48
-1.58
-2.95
-4.61
-6.50
-8.47
-10.24
-11.53
-12.10
-11.85
-10.80
-9.14
-7.11
-5.03
-3.13
-1.58
-0.46
0.26
0.64
0.70
0.47
-0.02
-0.66
-1.31
-1.76
-1.84
-1.50
-0.78
0.17
1.18
2.07
2.72
3.06
3.07
2.80
2.37
1.84
1.28
0.65
-0.04
-0.84
-1.72
-2.56
-3.27
-3.76
-4.08
-4.32
-4.61
-5.08
-5.81
-6.80
-8.02
-9.32
-10.46
-11.14
-11.09
-10.11
-8.22
-5.60
-2.59
0.40
3.03
5.08
6.52
7.42
7.91
8.08
7.94
7.41
6.45
5.13
3.72
2.58
2.03
2.15
2.84
3.81
4.80
5.62
6.22
6.58
6.64
6.34
5.65
4.70
3.72
2.96
2.58
2.51
2.52
2.32
1.66
0.45
-1.19
-3.06
-4.89
-6.47
-7.66
-8.40
-8.67
-8.47
-7.81
-6.71
-5.28
-3.69
-2.17
-0.90
-0.03
0.45
0.64
0.62
0.44
0.05
-0.62
-1.54
-2.59
-3.56
-4.21
-4.38
-4.09
-3.48
-2.75
-2.10
-1.60
-1.31
-1.19
-1.17
-1.14
-1.02
-0.70
-0.19
0.37
0.77
0.70
-0.04
-1.52
-3.63
-6.12
-8.65
-10.91
-12.64
-13.61
-13.74
-12.97
-11.38
-9.13
-6.43
-3.55
-0.73
1.88
4.22
6.26
8.05
9.56
10.74
11.52
11.80
11.58
10.90
9.86
8.52
6.97
5.24
3.40
1.53
-0.19
-1.54
-2.33
-2.39
-1.72
-0.42
1.27
3.01
4.45
5.22
5.12
4.09
2.27
-0.11
-2.68
-5.13
-7.17
-8.56
-9.12
-8.72
-7.27
-4.83
-1.60
2.07
5.69
8.77
10.87
11.73
11.28
9.68
7.22
4.32
1.45
-0.96
-2.57
-3.20
-2.84
-1.69
-0.03
1.76
3.36
4.56
5.26
5.46
5.23
4.71
3.98
3.16
2.29
1.40
0.59
-0.05
-0.43
-0.53
-0.52
-0.77
-1.70
-3.65
-6.64
-10.35
-14.09
-17.03
-18.44
-17.91
-15.40
-11.25
-6.06
-0.53
4.71
9.11
12.25
13.86
13.74
11.95
8.78
4.82
0.78
-2.62
-4.96
-6.21
-6.71
-6.98
-7.54
-8.73
-10.62
-13.13
-16.04
-19.07
-21.89
-24.10
-25.30
-25.17
-23.59
-20.69
-16.85
-12.53
-8.10
-3.76
0.45
4.53
8.38
11.72
14.26
15.82
16.45
16.47
16.33
16.41
16.85
17.54
18.23
18.65
18.60
18.01
16.90
15.34
13.44
11.30
9.08
6.91
4.94
3.31
2.17
1.63
1.73
2.46
3.59
4.82
5.70
5.84
5.02
3.26
0.80
-1.98
-4.70
-7.08
-9.01
-10.51
-11.73
-12.84
-13.99
-15.21
-16.41
-17.26
-17.38
-16.35
-13.99
-10.40
-6.04
-1.60
2.24
5.01
6.56
7.04
6.79
6.17
5.53
5.10
5.04
5.39
6.13
7.07
7.99
8.62
8.77
8.37
7.53
6.45
5.38
4.53
4.02
3.85
3.94
4.16
4.37
4.48
4.42
4.14
3.53
2.47
0.93
-1.06
-3.25
-5.27
-6.71
-7.28
-6.90
-5.76
-4.16
-2.46
-0.91
0.42
1.51
2.43
3.18
3.72
4.01
4.07
4.00
3.89
3.83
3.84
3.88
3.91
3.87
3.81
3.76
3.78
3.91
4.20
4.62
5.08
5.44
5.49
5.04
3.96
2.24
-0.03
-2.69
-5.57
-8.51
-11.34
-13.88
-15.90
-17.15
-17.39
-16.44
-14.32
-11.27
-7.71
-4.17
-1.12
1.18
2.68
3.54
4.00
4.21
4.19
3.90
3.31
2.55
1.87
1.56
1.84
2.71
4.03
5.51
6.84
7.74
8.07
7.79
6.98
5.80
4.47
3.24
2.30
1.73
1.54
1.59
1.71
1.70
1.35
0.49
-0.97
-2.97
-5.26
-7.44
-9.06
-9.76
-9.41
-8.14
-6.22
-4.01
-1.79
0.24
1.98
3.32
4.21
4.64
4.67
4.45
4.12
3.73
3.30
2.79
2.22
1.71
1.46
1.59
2.15
2.99
3.89
4.68
5.27
5.66
5.88
5.95
5.80
5.39
4.69
3.74
2.63
1.45
0.31
-0.69
-1.49
-2.07
-2.52
-3.00
-3.75
-4.90
-6.50
-8.43
-10.47
-12.37
-13.85
-14.74
-14.88
-14.20
-12.72
-10.62
-8.18
-5.72
-3.51
-1.63
-0.06
1.31
2.52
3.55
4.28
4.63
4.62
4.41
4.25
4.37
4.93
5.94
7.32
8.88
10.40
11.65
12.41
12.54
12.03
10.98
9.59
8.08
6.64
5.42
4.49
3.85
3.45
3.10
2.56
1.55
-0.04
-2.16
-4.47
-6.50
-7.81
-8.12
-7.43
-5.91
-3.88
-1.69
0.37
2.07
3.29
3.97
4.18
4.09
3.88
3.70
3.62
3.58
3.47
3.22
2.84
2.52
2.47
2.86
3.71
4.84
5.87
6.37
6.05
4.82
2.90
0.70
-1.39
-3.08
-4.26
-5.01
-5.44
-5.68
-5.88
-6.13
-6.58
-7.36
-8.53
-9.98
-11.46
-12.57
-12.94
-12.33
-10.80
-8.64
-6.33
-4.35
-2.99
-2.32
-2.17
-2.28
-2.41
-2.42
-2.30
-2.08
-1.81
-1.46
-1.00
-0.38
0.42
1.41
2.54
3.73
4.85
5.75
6.30
6.41
6.06
5.33
4.37
3.35
2.38
1.51
0.74
-0.01
-0.77
-1.59
-2.49
-3.49
-4.62
-5.90
-7.32
-8.78
-10.08
-10.99
-11.25
-10.70
-9.31
-7.21
-4.67
-2.05
0.30
2.16
3.49
4.46
5.32
6.24
7.24
8.16
8.77
8.92
8.70
8.38
8.31
8.79
9.85
11.34
12.92
14.22
14.93
14.91
14.15
12.76
10.93
8.86
6.71
4.54
2.36
0.15
-2.03
-4.04
-5.67
-6.77
-7.31
-7.41
-7.32
-7.30
-7.58
-8.27
-9.36
-10.71
-12.12
-13.30
-13.95
-13.80
-12.72
-10.71
-7.99
-4.92
-1.90
0.71
2.69
4.04
4.93
5.59
6.20
6.79
7.24
7.38
7.11
6.48
5.71
5.09
4.80
4.92
5.32
5.82
6.21
6.44
6.51
6.48
6.37
6.14
5.70
4.98
3.99
2.83
1.63
0.52
-0.41
-1.12
-1.67
-2.10
-2.51
-2.97
-3.55
-4.30
-5.23
-6.34
-7.57
-8.85
-10.08
-11.07
-11.59
-11.43
-10.49
-8.85
-6.77
-4.59
-2.64
-1.09
0.03
0.83
1.38
1.72
1.83
1.71
1.42
1.03
0.68
0.47
0.46
0.70
1.22
1.99
2.93
3.85
4.54
4.82
4.62
4.02
3.19
2.35
1.61
1.02
0.56
0.21
-0.08
-0.35
-0.63
-0.98
-1.40
-1.91
-2.50
-3.15
-3.87
-4.65
-5.45
-6.18
-6.68
-6.75
-6.26
-5.16
-3.52
-1.54
0.51
2.45
4.16
5.61
6.82
7.81
8.47
8.69
8.32
7.35
5.89
4.25
2.76
1.75
1.34
1.51
2.04
2.68
3.21
3.52
3.62
3.54
3.27
2.78
2.03
1.07
0.02
-0.94
-1.65
-2.08
-2.29
-2.47
-2.77
-3.32
-4.17
-5.29
-6.59
-7.92
-9.04
-9.69
-9.63
-8.77
-7.18
-5.16
-3.13
-1.50
-0.51
-0.19
-0.32
-0.56
-0.60
-0.31
0.24
0.85
1.28
1.41
1.24
0.89
0.53
0.28
0.18
0.22
0.40
0.68
1.02
1.32
1.50
1.49
1.23
0.78
0.23
-0.33
-0.84
-1.28
-1.71
-2.22
-2.91
-3.87
-5.09
-6.51
-7.93
-9.10
-9.75
-9.67
-8.80
-7.23
-5.19
-2.98
-0.90
0.85
2.19
3.11
3.66
3.88
3.82
3.51
3.03
2.49
2.01
1.68
1.55
1.58
1.71
1.87
1.99
2.06
2.06
1.99
1.87
1.71
1.49
1.24
0.95
0.57
0.08
-0.52
-1.14
-1.65
-1.91
-1.91
-1.74
-1.68
-1.96
-2.73
-3.94
-5.34
-6.63
-7.50
-7.72
-7.22
-6.03
-4.33
-2.36
-0.46
1.09
2.13
2.68
2.94
3.13
3.42
3.76
4.04
4.09
3.85
3.41
2.95
2.66
2.61
2.80
3.11
3.45
3.75
4.04
4.35
4.69
5.00
5.18
5.12
4.73
3.99
2.99
1.86
0.75
-0.19
-0.91
-1.41
-1.76
-2.08
-2.50
-3.17
-4.17
-5.48
-6.96
-8.27
-9.07
-9.08
-8.25
-6.74
-4.92
-3.20
-1.88
-1.08
-0.70
-0.56
-0.45
-0.25
0.03
0.32
0.51
0.56
0.49
0.34
0.22
0.22
0.46
1.00
1.84
2.88
3.93
4.76
5.24
5.34
5.14
4.79
4.35
3.84
3.20
2.43
1.66
1.02
0.63
0.49
0.48
0.38
0.01
-0.74
-1.85
-3.24
-4.70
-6.01
-6.89
-7.16
-6.74
-5.69
-4.22
-2.59
-0.99
0.47
1.79
2.99
4.10
5.09
5.87
6.31
6.31
5.87
5.11
4.23
3.46
2.98
2.84
3.02
3.37
3.77
4.14
4.46
4.68
4.73
4.51
3.94
3.02
1.83
0.60
-0.49
-1.32
-1.87
-2.28
-2.74
-3.45
-4.50
-5.87
-7.44
-9.02
-10.34
-11.16
-11.30
-10.64
-9.16
-7.01
-4.45
-1.77
0.69
2.68
4.04
4.73
4.82
4.45
3.78
2.96
2.08
1.15
0.20
-0.71
-1.44
-1.81
-1.69
-1.11
-0.22
0.70
1.41
1.79
1.89
1.81
1.68
1.53
1.31
0.98
0.52
-0.04
-0.64
-1.22
-1.77
-2.31
-2.94
-3.76
-4.88
-6.34
-8.09
-9.89
-11.38
-12.15
-11.87
-10.45
-8.08
-5.17
-2.18
0.49
2.65
4.27
5.47
6.36
7.03
7.49
7.70
7.61
7.23
6.61
5.85
5.09
4.44
3.99
3.78
3.81
4.02
4.37
4.78
5.15
5.38
5.33
4.88
4.01
2.75
1.26
-0.23
-1.52
-2.44
-2.98
-3.19
-3.21
-3.23
-3.39
-3.79
-4.48
-5.43
-6.53
-7.59
-8.36
-8.53
-7.90
-6.38
-4.14
-1.51
1.06
3.17
4.60
5.35
5.64
5.70
5.74
5.80
5.83
5.74
5.47
5.04
4.56
4.15
3.93
3.95
4.20
4.58
4.99
5.32
5.47
5.42
5.15
4.72
4.21
3.74
3.36
3.08
2.84
2.53
2.05
1.37
0.53
-0.32
-1.04
-1.59
-1.97
-2.35
-2.89
-3.77
-5.03
-6.61
-8.28
-9.72
-10.61
-10.71
-9.94
-8.43
-6.44
-4.32
-2.33
-0.69
0.56
1.43
1.97
2.20
2.11
1.71
1.02
0.16
-0.71
-1.37
-1.66
-1.49
-0.89
0.02
1.04
1.96
2.62
2.94
2.98
2.84
2.68
2.59
2.59
2.64
2.69
2.71
2.74
2.86
3.11
3.50
3.93
4.19
4.05
3.32
1.96
0.07
-2.06
-4.06
-5.54
-6.22
-6.00
-4.95
-3.28
-1.28
0.84
2.87
4.70
6.20
7.30
7.91
7.99
7.56
6.68
5.48
4.14
2.85
1.79
1.13
0.94
1.23
1.89
2.81
3.88
4.97
5.98
6.74
7.09
6.90
6.11
4.88
3.45
2.09
1.01
0.21
-0.40
-0.98
-1.65
-2.48
-3.48
-4.66
-6.01
-7.53
-9.10
-10.55
-11.56
-11.91
-11.45
-10.29
-8.68
-6.99
-5.56
-4.55
-3.96
-3.61
-3.33
-2.97
-2.55
-2.14
-1.86
-1.76
-1.82
-1.92
-1.95
-1.80
-1.40
-0.70
0.28
1.50
2.82
4.05
4.99
5.51
5.62
5.43
5.09
4.69
4.24
3.64
2.87
1.94
0.96
0.09
-0.59
-1.08
-1.50
-1.96
-2.59
-3.43
-4.47
-5.64
-6.82
-7.86
-8.56
-8.68
-8.04
-6.58
-4.40
-1.79
0.81
2.99
4.51
5.31
5.57
5.60
5.61
5.73
5.89
6.01
5.99
5.86
5.72
5.73
5.93
6.31
6.71
6.96
6.88
6.42
5.65
4.77
3.96
3.27
2.64
1.92
0.99
-0.14
-1.30
-2.27
-2.91
-3.26
-3.48
-3.80
-4.32
-5.02
-5.77
-6.53
-7.25
-7.97
-8.71
-9.32
-9.57
-9.21
-8.09
-6.24
-3.88
-1.32
1.15
3.30
5.06
6.40
7.35
7.89
7.97
7.57
6.74
5.62
4.41
3.36
2.64
2.28
2.24
2.34
2.44
2.41
2.21
1.80
1.22
0.49
-0.33
-1.14
-1.87
-2.46
-2.91
-3.24
-3.51
-3.73
-3.88
-3.90
-3.76
-3.52
-3.29
-3.25
-3.55
-4.22
-5.21
-6.34
-7.33
-7.89
-7.77
-6.86
-5.21
-3.06
-0.73
1.46
3.38
4.96
6.25
7.26
7.94
8.19
7.95
7.26
6.28
5.23
4.36
3.85
3.76
4.06
4.59
5.19
5.67
5.91
5.83
5.41
4.64
3.56
2.24
0.83
-0.48
-1.56
-2.35
-2.89
-3.31
-3.67
-4.05
-4.44
-4.86
-5.31
-5.82
-6.31
-6.65
-6.60
-5.99
-4.75
-2.97
-0.90
1.16
2.91
4.12
4.69
4.66
4.18
3.45
2.69
2.01
1.44
0.88
0.26
-0.45
-1.13
-1.63
-1.78
-1.53
-0.94
-0.21
0.49
1.02
1.38
1.61
1.75
1.78
1.65
1.27
0.63
-0.21
-1.15
-2.03
-2.77
-3.34
-3.81
-4.26
-4.80
-5.50
-6.35
-7.26
-8.05
-8.48
-8.35
-7.53
-6.05
-4.12
-2.04
-0.13
1.38
2.42
3.02
3.32
3.40
3.31
3.02
2.51
1.81
1.00
0.26
-0.28
-0.50
-0.28
0.40
1.51
2.93
4.44
5.80
6.76
7.20
7.10
6.56
5.75
4.82
3.84
2.85
1.84
0.82
-0.19
-1.12
-1.94
-2.63
-3.25
-3.87
-4.58
-5.43
-6.36
-7.16
-7.57
-7.30
-6.16
-4.21
-1.72
0.89
3.18
4.82
5.67
5.81
5.39
4.66
3.80
2.90
2.03
1.19
0.43
-0.18
-0.59
-0.77
-0.73
-0.50
-0.15
0.30
0.80
1.33
1.83
2.18
2.28
2.00
1.35
0.33
-0.92
-2.28
-3.65
-4.93
-6.03
-6.82
-7.20
-7.12
-6.61
-5.84
-5.06
-4.52
-4.38
-4.66
-5.19
-5.73
-5.95
-5.64
-4.71
-3.26
-1.45
0.45
2.18
3.58
4.58
5.20
5.54
5.65
5.57
5.28
4.77
4.08
3.30
2.57
2.03
1.80
1.88
2.29
2.94
3.77
4.67
5.51
6.16
6.50
6.49
6.20
5.74
5.20
4.67
4.13
3.56
2.97
2.35
1.70
0.93
-0.09
-1.44
-3.13
-4.95
-6.58
-7.65
-7.90
-7.28
-5.91
-4.07
-2.05
-0.14
1.40
2.41
2.79
2.64
2.17
1.68
1.37
1.34
1.52
1.74
1.92
2.03
2.14
2.34
2.63
2.96
3.23
3.40
3.44
3.36
3.11
2.66
1.97
1.04
-0.02
-1.10
-2.09
-2.96
-3.69
-4.28
-4.73
-5.06
-5.35
-5.73
-6.36
-7.28
-8.35
-9.26
-9.65
-9.25
-8.03
-6.20
-4.11
-2.13
-0.53
0.55
1.11
1.26
1.13
0.89
0.67
0.57
0.57
0.68
0.86
1.09
1.43
1.89
2.50
3.23
3.98
4.67
5.18
5.47
5.51
5.36
5.10
4.77
4.41
3.98
3.42
2.68
1.79
0.84
-0.04
-0.74
-1.24
-1.54
-1.77
-2.09
-2.63
-3.51
-4.69
-6.01
-7.19
-7.93
-7.99
-7.31
-5.98
-4.21
-2.24
-0.34
1.31
2.57
3.41
3.87
4.07
4.13
4.12
4.03
3.81
3.45
2.99
2.53
2.20
2.10
2.28
2.72
3.38
4.20
5.05
5.77
6.19
6.21
5.84
5.19
4.43
3.70
2.97
2.18
1.25
0.16
-0.96
-1.92
-2.60
-3.00
-3.22
-3.47
-3.88
-4.52
-5.35
-6.21
-6.91
-7.26
-7.13
-6.50
-5.45
-4.16
-2.81
-1.58
-0.53
0.32
1.00
1.52
1.90
2.09
2.08
1.87
1.52
1.11
0.73
0.48
0.38
0.43
0.58
0.79
1.05
1.34
1.66
1.98
2.24
2.37
2.37
2.26
2.14
2.04
1.94
1.81
1.61
1.37
1.16
1.02
0.96
0.86
0.60
0.06
-0.78
-1.83
-2.91
-3.89
-4.67
-5.17
-5.37
-5.16
-4.46
-3.23
-1.50
0.55
2.68
4.60
6.07
6.91
7.09
6.62
5.62
4.27
2.81
1.47
0.46
-0.07
-0.11
0.26
0.92
1.73
2.61
3.46
4.21
4.71
4.85
4.59
3.98
3.18
2.31
1.46
0.59
-0.35
-1.39
-2.47
-3.49
-4.42
-5.29
-6.21
-7.27
-8.41
-9.40
-9.88
-9.58
-8.43
-6.66
-4.67
-2.88
-1.53
-0.63
-0.01
0.55
1.20
1.89
2.43
2.57
2.19
1.36
0.32
-0.58
-1.09
-1.15
-0.87
-0.49
-0.22
-0.10
-0.09
-0.03
0.14
0.41
0.65
0.73
0.56
0.21
-0.16
-0.40
-0.39
-0.19
0.06
0.14
-0.13
-0.83
-1.94
-3.40
-5.12
-6.95
-8.75
-10.25
-11.09
-10.93
-9.63
-7.31
-4.40
-1.49
0.94
2.60
3.51
3.91
4.05
4.07
3.95
3.63
3.01
2.14
1.13
0.19
-0.46
-0.64
-0.27
0.63
1.97
3.53
5.09
6.39
7.28
7.67
7.58
7.14
6.45
5.66
4.81
3.92
2.99
2.01
1.01
0.05
-0.83
-1.62
-2.36
-3.16
-4.10
-5.29
-6.76
-8.44
-10.17
-11.64
-12.50
-12.44
-11.33
-9.23
-6.46
-3.47
-0.69
1.60
3.33
4.61
5.62
6.47
7.15
7.55
7.52
7.06
6.33
5.56
5.01
4.81
4.95
5.34
5.84
6.37
6.86
7.26
7.53
7.65
7.61
7.45
7.15
6.68
5.99
5.02
3.81
2.50
1.24
0.17
-0.68
-1.41
-2.19
-3.16
-4.38
-5.79
-7.23
-8.51
-9.47
-10.02
-10.17
-9.94
-9.34
-8.33
-6.85
-4.93
-2.69
-0.39
1.68
3.30
4.39
4.97
5.11
4.83
4.12
3.04
1.73
0.45
-0.52
-0.95
-0.82
-0.23
0.62
1.50
2.23
2.70
2.79
2.50
1.84
0.93
-0.07
-1.01
-1.75
-2.22
-2.41
-2.32
-2.03
-1.66
-1.38
-1.37
-1.75
-2.54
-3.60
-4.68
-5.50
-5.86
-5.62
-4.81
-3.52
-1.93
-0.23
1.40
2.81
3.89
4.59
4.91
4.90
4.62
4.14
3.52
2.80
2.01
1.25
0.58
0.12
-0.01
0.33
1.15
2.35
3.73
4.97
5.82
6.14
5.91
5.26
4.35
3.33
2.28
1.20
0.09
-1.00
-2.04
-2.95
-3.72
-4.43
-5.25
-6.36
-7.82
-9.44
-10.82
-11.49
-11.08
-9.58
-7.33
-4.87
-2.70
-1.08
0.01
0.72
1.21
1.54
1.66
1.54
1.26
1.00
0.95
1.20
1.64
2.05
2.25
2.18
1.99
1.87
1.96
2.22
2.48
2.54
2.33
1.90
1.37
0.87
0.46
0.11
-0.26
-0.72
-1.36
-2.28
-3.55
-5.19
-7.09
-8.95
-10.41
-11.09
-10.78
-9.49
-7.46
-5.05
-2.68
-0.65
0.86
1.84
2.42
2.77
3.05
3.36
3.71
4.11
4.51
4.88
5.17
5.39
5.55
5.66
5.80
5.96
6.15
6.33
6.50
6.67
6.84
6.99
7.02
6.81
6.24
5.31
4.19
3.09
2.22
1.58
1.02
0.25
-0.96
-2.69
-4.80
-6.94
-8.75
-9.88
-10.12
-9.45
-7.99
-6.01
-3.85
-1.87
-0.29
0.81
1.48
1.90
2.25
2.63
3.07
3.55
3.97
4.25
4.35
4.24
4.00
3.72
3.55
3.58
3.85
4.28
4.76
5.18
5.44
5.50
5.29
4.80
4.01
2.93
1.68
0.41
-0.68
-1.45
-1.89
-2.12
-2.35
-2.82
-3.71
-5.02
-6.63
-8.34
-9.92
-11.18
-11.99
-12.24
-11.86
-10.80
-9.12
-7.01
-4.76
-2.61
-0.79
0.64
1.68
2.32
2.55
2.37
1.83
1.14
0.57
0.41
0.81
1.76
3.07
4.54
5.95
7.20
8.20
8.89
9.23
9.22
8.92
8.42
7.84
7.22
6.57
5.83
5.02
4.17
3.40
2.79
2.34
1.91
1.30
0.33
-1.10
-2.88
-4.75
-6.33
-7.29
-7.38
-6.60
-5.09
-3.17
-1.17
0.63
2.02
2.90
3.23
3.07
2.53
1.80
1.08
0.52
0.17
-0.01
-0.10
-0.16
-0.17
-0.09
0.11
0.39
0.62
0.71
0.62
0.37
0.07
-0.22
-0.46
-0.69
-0.97
-1.30
-1.66
-1.99
-2.26
-2.53
-2.91
-3.59
-4.67
-6.11
-7.70
-9.06
-9.82
-9.69
-8.64
-6.83
-4.63
-2.43
-0.55
0.86
1.81
2.38
2.69
2.83
2.87
2.80
2.66
2.49
2.30
2.15
2.07
2.15
2.45
3.01
3.83
4.80
5.75
6.52
7.01
7.19
7.05
6.65
5.94
4.92
3.58
2.01
0.38
-1.09
-2.20
-2.85
-3.10
-3.17
-3.37
-3.93
-4.91
-6.20
-7.47
-8.36
-8.56
-7.90
-6.43
-4.35
-1.98
0.34
2.30
3.70
4.54
4.93
5.13
5.37
5.75
6.20
6.55
6.57
6.16
5.39
4.47
3.70
3.34
3.50
4.12
4.98
5.77
6.25
6.28
5.84
5.06
4.08
3.02
1.95
0.87
-0.22
-1.27
-2.15
-2.77
-3.12
-3.25
-3.31
-3.48
-3.88
-4.59
-5.62
-6.93
-8.38
-9.74
-10.69
-10.95
-10.31
-8.84
-6.77
-4.49
-2.34
-0.49
1.02
2.24
3.20
3.85
4.06
3.78
3.04
2.02
1.01
0.28
-0.02
0.16
0.74
1.59
2.61
3.66
4.66
5.49
6.08
6.33
6.22
5.80
5.14
4.37
3.60
2.92
2.36
1.90
1.48
1.06
0.65
0.26
-0.10
-0.51
-1.07
-1.89
-2.97
-4.17
-5.24
-5.93
-6.05
-5.55
-4.52
-3.13
-1.59
-0.06
1.35
2.61
3.69
4.61
5.29
5.70
5.75
5.44
4.87
4.21
3.68
3.44
3.55
3.92
4.35
4.64
4.66
4.35
3.75
2.93
2.01
1.11
0.35
-0.20
-0.52
-0.65
-0.66
-0.65
-0.71
-0.98
-1.58
-2.64
-4.15
-6.02
-8.01
-9.78
-11.01
-11.47
-11.05
-9.78
-7.83
-5.47
-3.01
-0.77
1.05
2.32
3.02
3.23
3.04
2.55
1.83
0.93
-0.06
-1.02
-1.74
-2.02
-1.73
-0.90
0.28
1.52
2.51
3.06
3.15
2.89
2.46
1.99
1.53
1.09
0.64
0.18
-0.29
-0.72
-1.06
-1.27
-1.35
-1.39
-1.51
-1.88
-2.61
-3.63
-4.70
-5.49
-5.72
-5.25
-4.20
-2.85
-1.52
-0.41
0.39
0.90
1.23
1.46
1.63
1.75
1.80
1.74
1.58
1.38
1.23
1.27
1.60
2.25
3.17
4.20
5.20
6.05
6.63
6.89
6.76
6.23
5.34
4.17
2.85
1.50
0.20
-0.96
-1.93
-2.65
-3.09
-3.30
-3.43
-3.71
-4.38
-5.59
-7.26
-9.13
-10.82
-11.90
-12.07
-11.23
-9.53
-7.28
-4.85
-2.58
-0.65
0.89
2.08
3.01
3.73
4.24
4.50
4.49
4.25
3.88
3.54
3.37
3.45
3.78
4.33
4.99
5.67
6.24
6.62
6.75
6.62
6.28
5.81
5.30
4.78
4.28
3.75
3.15
2.52
1.89
1.30
0.78
0.21
-0.50
-1.49
-2.82
-4.42
-6.14
-7.71
-8.88
-9.41
-9.16
-8.13
-6.41
-4.24
-1.89
0.39
2.43
4.14
5.52
6.56
7.29
7.67
7.68
7.38
6.88
6.38
6.05
5.99
6.22
6.64
7.15
7.62
8.01
8.21
8.15
7.74
6.93
5.77
4.41
3.09
2.01
1.26
0.76
0.31
-0.29
-1.25
-2.63
-4.48
-6.68
-9.11
-11.49
-13.48
-14.68
-14.78
-13.72
-11.69
-9.13
-6.50
-4.16
-2.26
-0.77
0.43
1.42
2.18
2.63
2.65
2.22
1.40
0.40
-0.55
-1.18
-1.31
-0.88
0.04
1.23
2.42
3.40
4.01
4.26
4.19
3.89
3.45
2.93
2.36
1.78
1.21
0.67
0.20
-0.24
-0.71
-1.36
-2.36
-3.81
-5.65
-7.59
-9.19
-10.01
-9.77
-8.49
-6.43
-4.05
-1.73
0.28
1.91
3.23
4.29
5.11
5.56
5.54
4.96
3.89
2.61
1.42
0.66
0.48
0.83
1.48
2.20
2.79
3.22
3.53
3.75
3.84
3.73
3.33
2.62
1.71
0.75
-0.10
-0.76
-1.18
-1.37
-1.35
-1.18
-0.96
-0.88
-1.18
-2.06
-3.59
-5.63
-7.79
-9.54
-10.40
-10.02
-8.43
-5.95
-3.07
-0.34
1.90
3.52
4.55
5.12
5.34
5.27
4.91
4.29
3.45
2.48
1.51
0.65
0.04
-0.22
-0.04
0.58
1.54
2.65
3.64
4.28
4.40
3.98
3.15
2.09
0.97
-0.08
-1.02
-1.89
-2.68
-3.38
-3.93
-4.29
-4.47
-4.62
-4.91
-5.53
-6.59
-7.99
-9.47
-10.67
-11.21
-10.87
-9.61
-7.61
-5.17
-2.66
-0.37
1.53
2.94
3.85
4.29
4.32
4.01
3.50
2.95
2.56
2.48
2.83
3.64
4.87
6.40
8.06
9.60
10.78
11.41
11.39
10.77
9.68
8.31
6.84
5.40
4.05
2.83
1.75
0.86
0.17
-0.34
-0.78
-1.29
-1.97
-2.90
-4.02
-5.15
-6.02
-6.38
-6.04
-4.98
-3.35
-1.43
0.42
1.92
2.89
3.33
3.39
3.20
2.88
2.41
1.76
0.90
-0.07
-1.00
-1.70
-2.07
-2.11
-1.92
-1.59
-1.18
-0.67
-0.04
0.67
1.35
1.83
1.96
1.71
1.17
0.45
-0.30
-0.99
-1.60
-2.06
-2.36
-2.55
-2.73
-3.10
-3.82
-4.90
-6.16
-7.24
-7.72
-7.33
-6.05
-4.19
-2.17
-0.42
0.84
1.57
1.90
1.99
1.96
1.91
1.80
1.61
1.34
1.04
0.83
0.79
1.05
1.64
2.53
3.66
4.91
6.13
7.22
8.04
8.46
8.36
7.65
6.37
4.69
2.88
1.24
-0.05
-0.93
-1.49
-1.89
-2.34
-2.99
-3.96
-5.30
-7.03
-9.01
-10.99
-12.54
-13.22
-12.73
-11.06
-8.49
-5.57
-2.82
-0.63
0.90
1.91
2.65
3.35
4.11
4.94
5.72
6.33
6.69
6.77
6.63
6.38
6.20
6.25
6.59
7.11
7.57
7.74
7.51
6.99
6.39
5.88
5.46
4.96
4.15
2.90
1.34
-0.20
-1.41
-2.11
-2.39
-2.52
-2.82
-3.49
-4.59
-6.02
-7.62
-9.18
-10.48
-11.30
-11.48
-10.97
-9.81
-8.20
-6.34
-4.47
-2.73
-1.21
0.02
0.93
1.52
1.81
1.86
1.77
1.59
1.37
1.18
1.12
1.33
1.90
2.85
4.03
5.21
6.16
6.69
6.77
6.48
5.94
5.26
4.48
3.59
2.61
1.63
0.77
0.15
-0.17
-0.24
-0.23
-0.33
-0.70
-1.40
-2.44
-3.69
-4.98
-6.04
-6.60
-6.46
-5.51
-3.89
-1.87
0.19
1.96
3.24
3.98
4.23
4.10
3.72
3.18
2.55
1.89
1.22
0.56
-0.04
-0.49
-0.64
-0.36
0.40
1.54
2.80
3.87
4.49
4.47
3.81
2.57
0.91
-0.94
-2.73
-4.21
-5.24
-5.82
-6.09
-6.32
-6.82
-7.78
-9.15
-10.69
-11.97
-12.55
-12.13
-10.68
-8.45
-5.84
-3.29
-1.13
0.52
1.71
2.55
3.15
3.58
3.85
3.99
4.00
3.90
3.73
3.52
3.33
3.25
3.38
3.73
4.26
4.85
5.33
5.59
5.62
5.44
5.10
4.64
4.02
3.25
2.37
1.49
0.76
0.26
-0.02
-0.23
-0.58
-1.31
-2.53
-4.21
-6.14
-7.96
-9.29
-9.87
-9.62
-8.65
-7.20
-5.57
-4.00
-2.61
-1.42
-0.37
0.58
1.43
2.15
2.64
2.86
2.80
2.49
2.08
1.70
1.51
1.62
2.07
2.81
3.69
4.52
5.11
5.38
5.35
5.13
4.86
4.56
4.19
3.64
2.84
1.80
0.63
-0.47
-1.38
-2.03
-2.47
-2.77
-3.02
-3.30
-3.75
-4.48
-5.56
-6.94
-8.37
-9.49
-9.95
-9.58
-8.48
-6.95
-5.38
-4.01
-2.94
-2.04
-1.16
-0.19
0.86
1.86
2.64
3.09
3.21
3.05
2.80
2.64
2.69
3.04
3.65
4.39
5.08
5.56
5.77
5.66
5.34
4.89
4.44
4.05
3.74
3.47
3.16
2.74
2.17
1.47
0.72
-0.01
-0.68
-1.33
-2.02
-2.84
-3.83
-4.99
-6.23
-7.42
-8.40
-8.99
-9.01
-8.35
-7.00
-5.09
-2.85
-0.55
1.53
3.21
4.40
5.07
5.28
5.11
4.62
3.94
3.21
2.59
2.20
2.12
2.37
2.87
3.53
4.19
4.75
5.13
5.29
5.23
4.95
4.45
3.77
2.93
1.98
1.03
0.24
-0.34
-0.67
-0.87
-1.05
-1.29
-1.62
-2.08
-2.80
-3.94
-5.51
-7.33
-8.90
-9.68
-9.29
-7.78
-5.60
-3.34
-1.51
-0.25
0.60
1.31
2.02
2.67
3.06
3.07
2.67
2.02
1.26
0.59
0.15
0.07
0.40
1.08
1.94
2.73
3.18
3.20
2.85
2.40
2.11
2.09
2.26
2.39
2.27
1.77
0.99
0.06
-0.85
-1.64
-2.28
-2.84
-3.40
-4.07
-5.01
-6.25
-7.73
-9.18
-10.19
-10.41
-9.63
-7.96
-5.72
-3.37
-1.33
0.19
1.14
1.67
1.95
2.16
2.35
2.51
2.58
2.52
2.35
2.15
2.03
2.09
2.34
2.77
3.30
3.88
4.42
4.90
5.27
5.50
5.57
5.51
5.31
4.95
4.41
3.67
2.75
1.75
0.78
-0.04
-0.66
-1.14
-1.60
-2.22
-3.20
-4.62
-6.46
-8.52
-10.48
-11.97
-12.68
-12.45
-11.33
-9.50
-7.26
-4.86
-2.57
-0.56
1.07
2.29
3.12
3.61
3.87
3.93
3.84
3.60
3.27
2.94
2.76
2.86
3.31
4.01
4.78
5.42
5.78
5.84
5.69
5.40
5.06
4.71
4.37
4.02
3.63
3.17
2.57
1.80
0.85
-0.20
-1.22
-2.12
-2.84
-3.47
-4.21
-5.22
-6.61
-8.33
-10.19
-11.86
-13.01
-13.36
-12.76
-11.29
-9.17
-6.75
-4.36
-2.23
-0.45
1.00
2.15
2.99
3.45
3.46
3.03
2.33
1.67
1.31
1.42
1.97
2.80
3.76
4.76
5.79
6.86
7.92
8.84
9.44
9.56
9.17
8.33
7.23
5.99
4.72
3.49
2.34
1.37
0.67
0.27
0.09
-0.07
-0.50
-1.43
-2.93
-4.89
-6.99
-8.85
-10.16
-10.72
-10.49
-9.53
-7.98
-6.07
-4.04
-2.13
-0.53
0.68
1.52
2.02
2.23
2.15
1.75
1.10
0.38
-0.15
-0.22
0.31
1.37
2.70
3.96
4.86
5.34
5.49
5.50
5.51
5.51
5.38
4.97
4.22
3.22
2.13
1.16
0.35
-0.33
-0.98
-1.66
-2.38
-3.11
-3.86
-4.74
-5.85
-7.24
-8.78
-10.19
-11.06
-11.07
-10.08
-8.24
-5.94
-3.60
-1.59
-0.05
1.02
1.74
2.22
2.49
2.54
2.34
1.94
1.43
0.96
0.64
0.52
0.65
1.05
1.78
2.81
4.07
5.35
6.40
6.97
6.98
6.49
5.74
5.02
4.46
4.08
3.69
3.07
2.10
0.82
-0.56
-1.79
-2.63
-3.06
-3.21
-3.33
-3.67
-4.39
-5.50
-6.89
-8.34
-9.59
-10.39
-10.52
-9.88
-8.51
-6.55
-4.28
-2.03
-0.08
1.32
2.09
2.31
2.22
2.10
2.18
2.49
2.89
3.13
3.03
2.61
2.12
1.93
2.33
3.34
4.79
6.34
7.70
8.71
9.37
9.72
9.73
9.32
8.41
7.01
5.24
3.31
1.45
-0.15
-1.43
-2.37
-3.01
-3.39
-3.59
-3.76
-4.04
-4.58
-5.46
-6.65
-8.02
-9.39
-10.55
-11.30
-11.54
-11.20
-10.29
-8.91
-7.21
-5.42
-3.71
-2.25
-1.08
-0.20
0.47
0.98
1.30
1.40
1.21
0.76
0.18
-0.31
-0.45
-0.10
0.75
1.95
3.30
4.53
5.49
6.10
6.39
6.47
6.40
6.24
5.97
5.55
4.93
4.17
3.37
2.66
2.17
1.95
1.88
1.75
1.31
0.41
-0.92
-2.45
-3.94
-5.16
-5.99
-6.42
-6.41
-5.93
-4.88
-3.24
-1.12
1.18
3.29
4.89
5.86
6.28
6.30
6.11
5.77
5.29
4.69
4.10
3.71
3.68
4.10
4.89
5.84
6.73
7.38
7.72
7.73
7.44
6.83
5.86
4.52
2.85
0.95
-0.94
-2.58
-3.75
-4.37
-4.55
-4.59
-4.84
-5.61
-6.97
-8.74
-10.51
-11.83
-12.34
-11.90
-10.61
-8.75
-6.65
-4.56
-2.64
-0.97
0.46
1.60
2.42
2.88
2.99
2.81
2.46
2.07
1.72
1.40
1.04
0.62
0.21
-0.05
0.00
0.45
1.22
2.09
2.80
3.13
3.03
2.58
1.97
1.34
0.78
0.28
-0.20
-0.71
-1.27
-1.90
-2.57
-3.29
-4.08
-4.99
-6.09
-7.39
-8.82
-10.18
-11.14
-11.39
-10.74
-9.19
-6.99
-4.54
-2.25
-0.43
0.76
1.42
1.76
1.99
2.28
2.66
3.06
3.31
3.32
3.09
2.70
2.37
2.30
2.66
3.49
4.67
5.97
7.09
7.80
8.04
7.88
7.50
7.07
6.62
6.12
5.46
4.61
3.65
2.72
1.94
1.31
0.75
0.15
-0.63
-1.62
-2.79
-4.07
-5.34
-6.50
-7.43
-8.00
-8.09
-7.65
-6.72
-5.42
-3.93
-2.45
-1.11
0.03
0.99
1.78
2.40
2.75
2.76
2.37
1.67
0.87
0.26
0.01
0.20
0.71
1.35
1.90
2.24
2.36
2.32
2.21
2.04
1.77
1.28
0.51
-0.52
-1.69
-2.82
-3.78
-4.50
-5.06
-5.60
-6.28
-7.18
-8.30
-9.57
-10.92
-12.27
-13.65
-15.05
-16.55
-18.17
-19.82
-21.31
-22.30
-22.47
-21.70
-20.23
-18.60
-17.49
-17.49
-18.81
-21.28
-24.42
-27.61
-30.26
-31.90
-32.23
-31.18
-28.97
-26.10
-23.26
-21.17
-20.31
-20.76
-22.22
-24.18
-26.19
-28.10
-30.07
-32.61
-36.24
-41.21
-47.20
-53.26
-57.91
-59.71
-57.78
-52.42
-45.02
-37.83
-33.06
-32.28
-36.13
-44.46
-56.72
-72.03
-89.14
-106.13
-120.55
-129.83
-131.92
-126.03
-112.85
-94.58
-74.35
-55.52
-40.84
-31.84
-28.58
-29.96
-34.41
-40.76
-48.70
-58.54
-70.48
-83.75
-96.42
-106.15
-111.44
-112.58
-111.32
-109.79
-109.04
-108.34
-105.70
-99.26
-88.52
-74.72
-60.02
-46.09
-33.19
-20.29
-6.09
9.70
25.74
39.48
48.33
50.86
47.52
40.42
32.63
27.25
26.58
31.73
42.41
57.22
74.03
90.62
105.20
116.62
124.44
128.55
129.06
126.15
120.20
112.00
102.73
93.69
85.95
79.98
75.61
72.24
69.30
66.55
64.18
62.68
62.46
63.53
65.49
67.58
69.05
69.42
68.59
66.81
64.51
62.01
59.42
56.60
53.26
49.13
44.04
37.97
31.03
23.52
15.89
8.90
3.48
0.61
0.95
4.57
10.81
18.40
25.85
31.89
35.85
37.74
38.06
37.49
36.57
35.48
34.21
32.63
30.78
28.88
27.36
26.64
26.97
28.29
30.30
32.54
34.55
35.93
36.46
36.01
34.49
31.94
28.43
24.15
19.42
14.57
9.87
5.35
0.84
-4.07
-9.74
-16.23
-23.14
-29.56
-34.33
-36.44
-35.37
-31.36
-25.39
-18.78
-12.84
-8.50
-6.16
-5.82
-7.27
-10.28
-14.73
-20.50
-27.35
-34.82
-42.31
-49.14
-54.89
-59.46
-63.07
-66.16
-69.17
-72.34
-75.70
-78.97
-81.62
-82.87
-81.81
-77.71
-70.35
-60.30
-48.93
-38.08
-29.44
-24.00
-21.72
-21.63
-22.27
-22.19
-20.29
-15.92
-8.89
0.70
12.39
25.40
38.66
51.00
61.48
69.62
75.45
79.31
81.65
82.81
83.04
82.56
81.69
80.91
80.73
81.64
84.02
88.11
93.95
101.21
109.02
115.87
119.92
119.45
113.66
102.93
88.88
73.59
58.84
45.39
32.76
19.63
4.51
-13.45
-34.07
-56.01
-77.07
-94.73
-106.52
-110.45
-105.24
-90.63
-67.62
-38.57
-7.02
23.10
48.41
67.13
79.42
87.09
92.53
97.60
102.90
107.80
111.14
112.02
110.28
106.32
100.57
93.13
83.79
72.36
59.13
44.82
30.39
16.52
3.42
-8.84
-19.89
-28.69
-33.88
-34.52
-31.08
-25.62
-21.48
-22.08
-29.59
-44.11
-63.43
-83.54
-99.70
-107.69
-104.92
-91.14
-68.49
-40.82
-12.68
11.88
29.99
40.26
42.44
37.12
25.56
9.63
-8.19
-25.11
-38.59
-46.87
-49.31
-46.33
-38.85
-27.84
-13.89
2.76
21.93
43.20
65.68
88.10
109.06
127.37
142.29
153.66
161.81
167.27
170.55
171.94
171.51
169.32
165.69
161.35
157.34
154.68
153.75
154.00
153.89
151.38
144.64
132.53
114.95
92.80
67.88
42.39
18.68
-1.52
-17.56
-30.00
-40.28
-49.93
-59.76
-69.34
-77.28
-82.00
-82.67
-79.88
-75.63
-72.71
-73.77
-80.47
-92.89
-109.42
-126.93
-141.30
-148.15
-143.99
-127.47
-100.30
-67.48
-36.10
-13.28
-3.67
-7.75
-21.75
-39.28
-53.87
-61.25
-60.24
-52.27
-39.98
-25.94
-12.04
0.36
10.09
16.18
18.10
16.25
12.11
7.76
5.22
5.57
8.66
13.25
17.69
20.68
21.72
21.16
19.90
18.84
18.54
19.01
19.92
20.84
21.46
21.71
21.64
21.39
20.97
20.27
19.09
17.22
14.55
11.10
7.05
2.71
-1.41
-4.82
-7.12
-8.22
-8.45
-8.45
-8.99
-10.66
-13.76
-18.25
-23.94
-30.59
-37.93
-45.62
-53.08
-59.44
-63.82
-65.54
-64.54
-61.38
-57.14
-53.05
-50.04
-48.49
-48.21
-48.61
-49.08
-49.20
-48.89
-48.38
-48.03
-48.27
-49.37
-51.40
-54.02
-56.56
-58.06
-57.50
-54.19
-47.98
-39.42
-29.53
-19.44
-10.06
-1.82
5.26
11.44
17.10
22.67
28.57
35.14
42.58
50.73
58.97
66.36
71.84
74.65
74.58
72.00
67.74
62.79
58.03
54.05
51.02
48.74
46.71
44.26
40.78
35.78
28.92
19.95
8.68
-4.92
-20.48
-37.11
-53.34
-67.43
-77.83
-83.63
-84.93
-82.64
-78.16
-72.78
-67.31
-61.88
-56.13
-49.53
-41.76
-32.91
-23.56
-14.54
-6.63
-0.33
4.32
7.52
9.55
10.54
10.47
9.27
6.98
3.84
0.31
-3.04
-5.74
-7.49
-8.30
-8.43
-8.40
-8.76
-10.02
-12.36
-15.62
-19.34
-22.92
-25.95
-28.35
-30.42
-32.73
-35.83
-40.09
-45.48
-51.54
-57.38
-61.82
-63.55
-61.44
-54.82
-43.78
-29.22
-12.70
3.91
18.95
31.26
40.37
46.46
50.10
52.04
52.93
53.18
52.99
52.35
51.14
49.21
46.50
43.14
39.39
35.69
32.43
29.92
28.18
26.95
25.81
24.32
22.27
19.68
16.77
13.69
10.32
6.23
0.88
-6.00
-14.10
-22.41
-29.50
-33.91
-34.71
-31.80
-25.89
-18.25
-10.26
-3.06
2.73
7.04
10.21
12.80
15.25
17.79
20.43
23.05
25.66
28.43
31.62
35.41
39.73
44.23
48.35
51.58
53.56
54.18
53.56
51.99
49.83
47.57
45.73
44.72
44.75
45.67
46.96
47.83
47.47
45.36
41.50
36.56
31.63
27.81
25.74
25.28
25.58
25.38
23.59
19.61
13.45
5.58
-3.26
-12.29
-20.69
-27.57
-32.16
-34.02
-33.28
-30.65
-27.11
-23.51
-20.27
-17.34
-14.46
-11.49
-8.59
-6.15
-4.61
-4.13
-4.53
-5.34
-5.98
-5.95
-4.93
-2.84
0.20
3.83
7.60
11.09
14.17
17.08
20.35
24.52
29.78
35.69
41.16
44.69
44.86
40.76
32.34
20.36
6.08
-9.14
-24.17
-38.20
-50.56
-60.56
-67.43
-70.44
-69.33
-64.56
-57.30
-49.18
-41.67
-35.69
-31.45
-28.73
-27.22
-26.86
-27.81
-30.36
-34.56
-40.21
-46.80
-53.71
-60.34
-66.20
-70.95
-74.37
-76.30
-76.67
-75.36
-72.18
-66.82
-59.13
-49.40
-38.62
-28.46
-20.83
-17.18
-17.88
-21.97
-27.51
-32.22
-34.31
-32.86
-28.02
-20.66
-12.01
-3.36
4.31
10.56
15.80
21.34
29.07
40.63
56.40
74.89
92.92
106.70
113.44
112.48
105.44
95.20
84.37
74.16
64.24
53.43
40.91
26.90
12.65
-0.19
-10.38
-17.48
-21.87
-24.25
-25.21
-24.90
-23.04
-19.15
-12.89
-4.38
5.56
15.46
23.64
28.69
30.10
28.47
25.33
22.53
21.55
22.88
25.74
28.34
28.40
24.02
14.50
0.87
-14.17
-26.93
-33.97
-33.29
-25.12
-11.92
2.51
14.29
20.75
21.20
16.83
10.10
3.66
-0.51
-1.52
0.48
4.92
11.26
19.43
29.64
41.95
55.76
69.67
81.75
90.24
94.25
93.92
90.25
84.45
77.29
68.89
59.02
47.59
35.09
22.63
11.50
2.49
-4.54
-10.66
-17.35
-25.70
-35.78
-46.56
-56.27
-63.27
-66.76
-67.15
-65.73
-64.06
-63.28
-63.53
-64.01
-63.22
-59.56
-51.74
-39.24
-22.46
-2.78
17.56
35.79
49.07
55.15
52.98
43.08
27.53
9.39
-8.12
-22.55
-32.60
-38.18
-39.89
-38.46
-34.42
-28.04
-19.61
-9.58
1.35
12.54
23.67
34.76
46.06
57.65
69.34
80.80
91.77
102.31
112.82
123.84
135.83
149.11
163.82
179.91
196.90
213.63
228.33
239.08
244.52
244.61
240.68
234.91
229.25
224.64
220.78
216.51
210.63
202.39
191.60
178.31
162.50
144.18
123.83
102.75
83.09
67.20
56.66
51.55
50.21
49.80
47.45
41.31
31.17
18.41
5.20
-6.35
-14.94
-20.38
-23.43
-25.40
-27.72
-31.63
-37.97
-47.14
-59.05
-73.27
-89.10
-105.85
-122.91
-139.86
-156.39
-172.26
-187.14
-200.55
-211.80
-220.08
-224.66
-225.11
-221.72
-215.48
-207.98
-200.89
-195.38
-191.64
-188.85
-185.63
-180.70
-173.48
-164.21
-153.79
-143.24
-133.26
-124.14
-115.87
-108.38
-101.80
-96.43
-92.65
-90.69
-90.52
-91.71
-93.47
-94.81
-94.80
-92.88
-89.15
-84.41
-79.96
-77.12
-76.66
-78.52
-81.84
-85.36
-87.83
-88.48
-86.93
-83.07
-76.90
-68.43
-57.83
-45.64
-32.78
-20.47
-9.97
-2.19
2.54
4.57
4.81
4.42
4.49
5.69
8.14
11.36
14.50
16.56
16.66
14.27
9.19
1.61
-7.89
-18.43
-28.81
-37.74
-44.05
-46.95
-46.21
-42.18
-35.64
-27.59
-18.98
-10.57
-2.92
3.60
8.75
12.44
14.72
15.85
16.19
16.10
15.77
15.10
13.81
11.59
8.32
4.18
-0.43
-5.04
-9.36
-13.24
-16.65
