1541428193.00
64.000000
-0.00
-0.00
-0.00
-0.00
-0.00
-0.00
-0.00
-0.00
-0.00
-0.00
0.00
0.01
0.01
-0.00
-0.03
-0.05
-0.05
0.00
0.13
0.36
0.66
1.01
1.37
1.72
2.06
2.40
2.79
3.24
3.80
4.42
5.06
5.66
6.20
6.68
7.15
7.68
8.31
9.14
10.09
11.04
11.88
12.56
13.14
13.76
14.65
15.96
17.91
20.32
22.90
25.38
27.58
29.57
31.68
34.32
37.81
42.54
48.15
54.10
59.83
64.97
69.58
74.14
79.34
85.71
93.76
103.00
112.62
121.73
129.77
136.75
143.30
150.75
157.77
166.64
177.95
191.79
206.97
220.57
228.25
225.36
208.53
176.87
132.76
80.05
23.07
-34.94
-92.44
-149.16
-205.23
-260.37
-313.74
-363.87
-409.83
-450.91
-486.50
-515.74
-537.23
-549.22
-549.96
-538.37
-514.21
-478.67
-433.88
-382.45
-327.02
-269.84
-212.63
-156.66
-102.95
-52.37
-5.90
35.58
71.43
101.35
125.50
144.38
158.69
169.15
176.37
180.75
182.57
182.07
179.51
175.23
169.65
163.18
156.15
148.81
141.30
133.69
126.02
118.33
110.69
103.16
95.80
88.68
81.83
75.25
68.95
62.95
57.25
51.86
46.78
42.03
37.59
33.45
29.61
26.07
22.81
19.83
17.11
14.66
12.48
10.54
8.85
7.37
6.09
4.98
4.01
3.16
2.44
1.84
1.36
1.00
0.72
0.51
0.31
0.13
-0.06
-0.22
-0.35
-0.42
-0.45
-0.45
-0.45
-0.50
-0.62
-0.79
-0.97
-1.11
-1.15
-1.10
-1.00
-0.95
-1.04
-1.33
-1.78
-2.29
-2.69
-2.87
-2.83
-2.66
-2.57
-2.77
-3.36
-4.28
-5.30
-6.13
-6.55
-6.51
-6.21
-6.02
-6.27
-7.15
-8.55
-10.11
-11.39
-12.07
-12.09
-11.69
-11.26
-11.18
-11.72
-13.04
-15.18
-17.94
-20.69
-22.32
-21.46
-17.00
-8.77
2.14
13.69
23.62
30.47
34.03
35.24
35.43
35.59
35.99
36.27
35.99
35.07
33.89
32.99
32.62
32.55
32.16
30.74
27.88
23.69
18.56
13.06
7.78
3.10
-0.85
-4.05
-6.61
-8.59
-10.05
-11.00
-11.48
-11.56
-11.38
-11.11
-10.93
-10.91
-11.02
-11.12
-11.04
-10.70
-10.12
-9.39
-8.65
-7.97
-7.34
-6.76
-6.21
-5.73
-5.30
-4.91
-4.46
-3.84
-2.99
-1.99
-0.98
-0.21
0.19
0.21
-0.01
-0.23
-0.22
0.12
0.69
1.32
1.83
2.14
2.29
2.36
2.40
2.33
2.01
1.33
0.39
-0.57
-1.18
-1.21
-0.61
0.44
1.62
2.65
3.33
3.57
3.27
2.52
1.24
-0.68
-3.18
-5.95
-8.43
-10.00
-10.16
-8.71
-5.85
-2.09
1.94
5.72
8.96
11.61
13.85
15.90
17.84
19.59
20.85
21.31
20.81
19.49
17.62
15.54
13.42
11.24
8.87
6.29
3.67
1.35
-0.31
-1.12
-1.18
-0.79
-0.27
0.17
0.53
0.89
1.30
1.76
2.16
2.38
2.33
2.03
1.59
1.10
0.64
0.24
-0.09
-0.36
-0.56
-0.64
-0.52
-0.12
0.62
1.68
2.94
4.20
5.31
6.27
7.33
8.92
11.49
15.23
19.99
25.19
30.05
33.91
36.47
37.90
38.82
39.93
41.82
44.77
48.69
53.26
58.10
62.92
67.63
72.36
77.28
82.41
87.61
92.67
97.64
102.77
108.41
114.23
118.68
118.87
111.17
92.48
61.42
18.75
-33.43
-92.93
-158.17
-227.54
-297.80
-362.73
-413.33
-440.22
-436.89
-402.06
-339.99
-258.52
-166.57
-72.33
16.84
93.94
152.20
186.45
195.02
181.06
152.04
117.37
85.29
60.64
44.51
35.42
31.16
30.25
32.33
37.65
46.24
57.26
69.04
79.50
86.79
89.99
89.23
85.50
80.01
73.65
66.44
57.43
44.96
27.26
3.40
-25.85
-57.66
-87.65
-111.26
-125.44
-129.64
-125.78
-117.10
-106.76
-96.94
-88.80
-82.96
-79.81
-79.30
-80.33
-80.43
-76.21
-64.75
-45.05
-19.01
9.03
33.68
50.50
57.43
55.27
47.01
36.41
26.57
19.02
13.53
8.72
2.97
-4.70
-14.25
-24.76
-34.93
-43.65
-50.31
-54.78
-57.07
-57.21
-55.13
-50.89
-44.84
-37.65
-30.15
-23.00
-16.48
-10.53
-4.99
0.23
4.99
8.92
11.64
12.93
12.87
11.81
10.23
8.56
7.07
5.77
4.55
3.32
2.23
1.61
1.87
3.16
5.20
7.37
8.99
9.58
9.08
7.73
5.88
3.81
1.69
-0.31
-1.93
-2.89
-3.05
-2.60
-2.14
-2.40
-3.93
-6.73
-10.19
-13.40
-15.59
-16.60
-17.05
-18.00
-20.48
-24.93
-30.92
-37.26
-42.44
-45.23
-45.14
-42.59
-38.70
-34.75
-31.60
-29.25
-26.81
-22.80
-15.90
-5.61
7.38
21.26
33.81
43.23
49.04
52.44
56.07
63.08
75.76
94.06
114.64
131.08
135.27
120.23
83.16
27.59
-36.63
-95.78
-136.32
-149.03
-131.72
-89.52
-32.93
25.40
74.21
106.06
118.54
113.94
97.75
76.72
56.89
42.40
35.05
34.69
39.85
48.41
57.83
65.43
68.88
66.84
59.47
48.43
36.19
25.18
17.04
12.31
10.82
11.99
15.16
19.74
25.27
31.56
38.73
47.13
57.13
68.69
81.27
93.91
105.58
115.59
123.80
130.65
137.11
144.52
154.38
167.80
184.81
203.72
221.00
232.20
233.47
223.17
202.67
175.98
147.93
122.05
99.11
77.20
53.00
23.46
-13.07
-56.86
-107.41
-163.89
-224.56
-285.63
-340.75
-382.61
-406.44
-413.80
-413.06
-415.96
-431.69
-461.65
-498.49
-529.33
-542.16
-531.44
-500.51
-458.12
-412.75
-368.92
-326.40
-283.35
-238.03
-189.76
-138.05
-82.93
-22.54
46.55
126.53
215.10
302.45
374.84
419.48
429.31
404.13
353.36
294.49
247.20
225.90
231.73
255.10
280.63
292.93
278.62
231.80
156.02
62.04
-36.06
-127.94
-204.82
-258.86
-267.56
-220.12
-129.55
-27.61
48.60
93.23
108.02
98.28
71.81
38.19
4.24
-25.49
-48.38
-63.76
-72.44
-79.00
-86.10
-92.94
-96.58
-96.63
-94.50
-91.68
-88.70
-84.79
-81.20
-78.51
-76.18
-73.10
-69.63
-66.36
-63.12
-59.06
-53.56
-48.83
-47.99
-53.74
-67.34
-88.68
-115.44
-143.15
-166.50
-181.23
-186.31
-183.22
-174.73
-163.54
-151.70
-140.22
-129.32
-118.96
-108.97
-99.04
-87.89
-73.09
-51.47
-20.11
22.44
75.16
133.90
191.35
238.21
265.36
266.80
242.40
198.90
148.39
104.36
77.03
70.06
80.28
100.29
122.40
141.75
157.07
169.25
179.13
186.05
188.11
183.59
172.50
157.16
141.40
128.75
120.90
117.07
114.66
110.83
103.84
93.99
83.29
74.34
68.99
67.36
67.81
67.77
64.99
58.58
49.25
38.76
29.02
21.09
14.90
9.52
3.79
-3.03
-10.95
-19.31
-27.11
-33.33
-37.26
-38.52
-37.13
-33.46
-28.08
-21.69
-14.93
-8.27
-1.97
3.89
9.23
13.93
17.77
20.48
21.99
22.38
21.97
21.24
20.61
20.38
20.72
21.62
23.02
24.77
26.72
28.62
30.19
31.14
31.29
30.59
29.26
27.65
26.13
24.89
23.88
22.76
21.18
18.98
16.31
13.61
11.42
10.10
9.67
9.80
9.94
9.55
8.27
6.14
3.62
1.66
1.47
4.17
10.38
19.93
31.88
44.89
57.82
70.19
82.32
94.97
108.73
123.48
138.24
151.39
161.15
166.10
165.56
159.70
149.33
135.59
119.20
100.10
77.14
48.30
11.19
-36.27
-94.75
-162.65
-235.43
-306.01
-365.85
-407.34
-426.13
-422.42
-400.44
-366.32
-325.81
-283.14
-241.53
-204.35
-175.51
-158.18
-152.44
-153.66
-153.07
-140.90
-110.26
-59.91
5.48
77.35
146.33
204.71
247.53
272.54
279.82
271.56
251.64
224.96
196.30
169.31
146.05
126.95
111.46
98.50
86.79
74.91
61.32
44.65
24.14
0.02
-26.30
-52.40
-75.48
-93.10
-103.80
-107.35
-104.63
-97.36
-87.57
-77.29
-68.19
-61.39
-57.42
-56.18
-57.15
-59.66
-63.07
-67.05
-71.68
-77.39
-84.69
-93.72
-103.57
-112.04
-115.73
-111.03
-95.23
-67.64
-29.91
14.44
61.09
106.04
146.29
179.92
205.86
223.67
233.49
236.17
233.27
226.80
218.83
211.09
204.85
200.98
200.02
202.22
207.49
215.39
225.01
234.96
243.33
247.72
245.60
234.82
214.32
184.63
147.73
106.33
62.79
18.25
-27.38
-74.58
-122.96
-170.42
-213.36
-247.78
-270.99
-282.63
-284.94
-281.69
-276.74
-272.75
-270.60
-269.92
-269.81
-269.75
-269.72
-269.92
-270.26
-270.29
-269.77
-269.46
-271.51
-278.75
-293.03
-313.39
-335.32
-351.93
-356.53
-345.22
-318.11
-278.69
-231.82
-181.87
-131.90
-84.03
-40.18
-2.09
29.23
54.17
74.58
92.97
111.29
130.16
149.11
167.25
183.96
199.02
212.23
223.08
230.92
235.36
236.76
236.08
234.34
231.92
228.38
222.85
214.82
204.48
192.66
180.30
167.88
155.28
142.10
128.12
113.64
99.46
86.35
74.65
64.15
54.35
44.83
35.72
27.72
21.78
18.63
18.38
20.44
23.68
26.85
28.97
29.49
28.31
25.60
21.61
16.61
10.87
4.71
-1.50
-7.29
-12.23
-15.98
-18.34
-19.30
-19.03
-17.89
-16.31
-14.74
-13.53
-12.80
-12.43
-12.17
-11.72
-10.94
-9.84
-8.61
-7.51
-6.75
-6.42
-6.42
-6.48
-6.29
-5.59
-4.31
-2.64
-0.91
0.57
1.68
2.56
3.52
4.85
6.64
8.69
10.62
12.10
13.05
13.72
14.53
15.87
17.85
20.38
23.27
26.57
30.59
35.72
42.14
49.50
56.96
63.52
68.53
71.97
74.30
76.09
77.47
77.96
76.79
73.44
68.05
61.61
55.59
51.36
49.61
49.95
50.81
49.86
44.74
33.82
16.83
-5.02
-29.60
-54.74
-79.20
-103.04
-127.33
-153.19
-180.79
-208.94
-235.11
-256.06
-268.36
-268.59
-253.43
-220.20
-167.82
-98.41
-18.26
62.64
132.68
181.88
204.89
202.30
179.75
145.55
107.87
72.94
44.45
24.03
11.87
7.16
8.11
12.18
16.46
18.55
17.28
12.93
6.88
0.83
-3.93
-6.96
-8.69
-10.15
-12.50
-16.70
-23.12
-31.42
-40.45
-48.60
-54.32
-56.81
-56.37
-54.34
-52.42
-51.80
-52.62
-54.22
-55.66
-56.43
-56.74
-57.13
-58.13
-59.37
-59.62
-57.48
-52.37
-44.85
-36.39
-28.64
-22.70
-18.97
-17.13
-16.48
-16.39
-16.72
-17.56
-18.65
-19.32
-18.58
-16.20
-12.59
-8.78
-6.28
-7.10
-12.04
-19.42
-25.48
-25.71
-18.50
-4.59
14.27
36.92
62.65
92.37
127.82
168.89
212.16
248.03
266.30
260.67
229.83
174.43
97.46
5.47
-91.52
-179.32
-246.65
-284.54
-288.95
-264.91
-228.81
-201.44
-197.28
-219.55
-258.97
-305.65
-350.37
-387.39
-392.48
-352.73
-278.29
-195.13
-141.42
-111.12
-91.46
-73.17
-45.19
-5.16
42.24
88.60
129.86
166.90
205.58
247.36
291.96
338.15
375.80
405.53
418.89
412.56
388.67
355.25
318.76
285.40
260.03
242.85
229.14
209.58
178.13
134.20
83.78
33.64
-9.82
-42.64
-64.94
-79.38
-90.49
-99.73
-105.97
-106.49
-100.99
-91.59
-81.95
-76.18
-76.60
-83.88
-95.52
-107.60
-116.52
-120.94
-121.62
-120.63
-120.07
-120.70
-122.20
-122.80
-120.46
-113.84
-102.98
-89.18
-74.37
-60.20
-47.34
-35.66
-24.47
-13.31
-2.42
7.23
14.43
18.27
18.63
16.19
12.10
7.50
3.17
-0.65
-4.18
-7.69
-11.24
-14.41
-16.34
-16.12
-13.23
-8.00
-1.56
4.44
8.57
10.01
8.81
5.71
1.72
-2.25
-5.59
-7.92
-9.01
-8.84
-7.59
-5.83
-4.48
-4.59
-6.99
-11.96
-18.99
-26.82
-33.83
-38.44
-39.60
-37.06
-31.35
-23.49
-14.61
-5.67
2.68
10.02
16.02
20.39
22.88
23.49
22.56
20.79
18.93
17.60
16.97
16.83
16.74
16.31
15.53
14.75
14.57
15.44
17.48
20.32
23.34
25.93
27.77
28.87
29.39
29.48
29.07
28.03
26.27
23.76
20.48
16.33
11.12
4.68
-2.95
-11.46
-20.27
-28.73
-36.15
-41.84
-45.01
-44.92
-41.14
-34.00
-24.75
-15.27
-7.37
-2.13
0.54
1.57
2.16
3.12
4.60
6.20
7.43
7.98
7.90
7.56
7.39
7.77
8.89
10.73
13.01
15.36
17.38
18.84
19.70
20.00
19.75
18.73
16.62
13.16
8.52
3.32
-1.46
-4.90
-6.59
-6.89
-6.71
-7.22
-9.31
-13.35
-19.14
-26.16
-33.82
-41.58
-48.90
-55.10
-59.30
-60.58
-58.32
-52.58
-44.14
-34.39
-24.81
-16.45
-9.55
-3.62
2.21
8.61
15.70
22.95
29.52
34.76
38.45
40.95
42.87
44.69
46.57
48.29
49.55
50.20
50.38
50.40
50.51
50.74
50.82
50.34
49.01
46.80
44.03
41.24
38.97
37.48
36.64
35.97
34.81
32.67
29.43
25.35
20.98
16.83
13.22
10.09
7.22
4.31
1.23
-1.94
-5.01
-7.76
-10.12
-12.13
-13.98
-15.84
-17.84
-20.07
-22.70
-26.01
-30.36
-36.01
-42.89
-50.37
-57.31
-62.28
-64.09
-62.22
-56.97
-49.28
-40.27
-30.88
-21.61
-12.56
-3.66
5.08
13.42
20.99
27.40
32.48
36.26
38.98
40.94
42.42
43.58
44.38
44.75
44.85
45.06
45.82
47.36
49.55
51.91
53.85
54.75
54.49
53.59
52.89
52.96
53.74
54.60
54.90
54.34
52.84
50.66
48.46
46.98
46.68
47.76
50.16
53.46
56.59
57.12
52.06
39.22
18.16
-9.59
-40.93
-72.05
-99.50
-118.01
-124.36
-119.75
-108.68
-95.65
-83.56
-73.54
-65.60
-59.06
-53.37
-48.91
-46.32
-45.53
-45.61
-45.47
-44.77
-44.61
-45.62
-47.26
-47.44
-42.69
-29.72
-8.11
18.01
40.79
51.88
46.75
26.98
-0.37
-25.88
-41.60
-43.84
-33.84
-15.72
4.07
18.58
21.71
8.67
-23.17
-72.95
-135.16
-199.71
-253.76
-285.50
-287.84
-260.95
-212.22
-153.09
-94.64
-43.83
-2.16
33.14
66.20
100.41
137.09
175.62
214.08
249.81
279.26
297.97
301.29
285.85
251.58
202.84
147.63
94.97
51.48
19.44
-2.83
-18.44
-29.07
-33.30
-27.59
-9.18
21.09
57.64
91.30
112.32
113.87
94.27
57.46
11.48
-34.15
-71.19
-94.64
-103.39
-99.42
-86.18
-67.04
-44.21
-18.82
8.28
35.48
59.85
77.54
85.05
80.71
65.56
43.29
18.76
-3.97
-22.93
-38.72
-53.31
-68.36
-84.04
-99.19
-112.32
-122.78
-131.09
-137.81
-141.88
-139.96
-127.36
-100.76
-60.98
-13.98
30.82
64.45
82.45
86.60
83.45
80.30
80.85
83.27
81.21
67.06
35.58
-13.81
-76.83
-145.52
-210.15
-261.26
-291.58
-297.83
-281.78
-249.65
-209.91
-170.28
-135.49
-106.98
-84.42
-67.93
-59.06
-59.94
-71.24
-90.78
-113.62
-134.03
-147.74
-153.22
-151.16
-143.09
-130.16
-113.18
-93.51
-73.91
-58.23
-50.10
-51.31
-60.88
-75.36
-90.27
-101.70
-107.32
-106.39
-99.33
-87.00
-70.49
-51.15
-30.56
-10.33
8.33
25.11
40.82
57.02
75.56
98.19
126.08
159.56
197.82
238.61
278.15
311.79
335.15
345.67
343.52
331.62
314.41
296.14
279.39
264.68
251.05
237.24
222.62
207.38
192.06
177.03
162.14
146.97
131.25
115.22
99.62
85.43
73.41
63.73
56.02
49.56
43.72
38.21
33.15
28.93
25.91
24.19
23.54
23.43
23.21
22.31
20.36
17.34
13.55
9.57
6.02
3.34
1.68
0.87
0.58
0.54
0.66
1.06
1.89
3.21
4.89
6.64
8.09
8.94
9.00
8.20
6.61
4.33
1.56
-1.49
-4.62
-7.69
-10.69
-13.67
-16.72
-19.85
-22.92
-25.65
-27.80
-29.24
-30.12
-30.79
-31.69
-33.18
-35.37
-38.15
-41.25
-44.29
-46.86
-48.57
-48.99
-47.90
-45.23
-41.25
-36.45
-31.37
-26.45
-21.90
-17.73
-13.88
-10.38
-7.30
-4.79
-2.92
-1.67
-0.98
-0.76
-0.93
-1.40
-2.01
-2.52
-2.68
-2.31
-1.45
-0.30
0.82
1.58
1.71
1.07
-0.34
-2.36
-4.66
-6.81
-8.41
-9.22
-9.27
-8.85
-8.37
-8.14
-8.26
-8.51
-8.51
-7.96
-6.77
-5.21
-3.79
-3.07
-3.45
-5.03
-7.63
-10.88
-14.44
-18.12
-21.93
-25.87
-29.84
-33.46
-36.20
-37.48
-36.92
-34.52
-30.68
-26.06
-21.37
-17.13
-13.54
-10.50
-7.78
-5.17
-2.59
-0.15
2.00
3.70
4.94
5.79
6.39
6.81
7.06
7.10
6.90
6.56
6.20
6.01
6.07
6.43
7.00
7.68
8.38
8.96
9.32
9.34
8.95
8.15
7.07
5.85
4.62
3.41
2.16
0.75
-0.84
-2.50
-4.01
-5.15
-5.89
-6.42
-7.07
-8.18
-9.87
-11.99
-14.20
-16.16
-17.72
-18.96
-20.20
-21.79
-23.99
-26.85
-30.16
-33.51
-36.36
-38.13
-38.35
-36.79
-33.56
-29.05
-23.87
-18.64
-13.80
-9.56
-5.89
-2.63
0.42
3.42
6.40
9.32
12.01
14.29
16.03
17.24
18.07
18.80
19.77
21.19
23.06
25.22
27.43
29.50
31.41
33.28
35.27
37.45
39.77
42.03
44.09
45.92
47.71
49.75
52.34
55.68
59.72
64.31
69.24
74.37
79.70
85.39
91.64
98.69
106.67
115.64
125.56
136.28
147.57
159.21
171.09
183.33
196.38
211.04
228.32
248.99
273.06
299.27
324.94
346.54
360.68
365.25
360.13
347.14
329.20
309.07
288.44
267.61
245.94
222.67
197.50
170.86
143.47
115.91
88.24
59.96
30.35
-1.12
-34.44
-68.96
-103.54
-136.88
-168.01
-196.54
-222.75
-247.36
-271.27
-295.14
-319.25
-343.45
-367.17
-389.32
-408.17
-421.46
-426.81
-422.46
-408.01
-384.77
-355.49
-323.52
-291.85
-262.58
-236.70
-214.41
-195.50
-179.70
-166.96
-157.49
-151.67
-149.70
-151.23
-155.22
-159.95
-163.59
-164.84
-163.50
-160.53
-157.85
-157.80
-162.71
-174.72
-195.53
-225.99
-265.15
-309.39
-352.24
-385.53
-401.62
-395.90
-368.33
-323.15
-267.04
-206.42
-145.59
-86.19
-28.00
29.80
87.89
146.34
204.29
259.25
306.84
341.18
356.63
350.22
322.99
279.37
224.77
163.14
96.25
25.59
-45.00
-107.90
-153.33
-173.56
-166.85
-138.73
-99.31
-58.57
-22.23
9.30
39.03
69.97
102.37
133.44
158.68
174.27
178.46
171.68
155.86
133.20
105.37
72.98
36.09
-4.95
-48.08
-89.28
-123.12
-144.47
-150.60
-142.74
-126.33
-109.52
-101.00
-106.97
-130.11
-169.15
-219.09
-272.04
-318.83
-351.77
-366.40
-363.01
-344.48
-315.68
-281.89
-247.47
-215.30
-186.82
-163.06
-143.81
-127.92
-110.57
-85.95
-49.68
-0.26
60.93
130.65
203.26
272.64
331.69
376.98
407.84
426.25
436.37
443.38
451.90
462.82
474.97
466.90
423.58
345.96
252.05
163.56
92.70
46.64
15.52
-8.50
-29.11
-43.26
-45.56
-35.28
-13.71
15.31
47.16
76.29
99.04
112.43
116.94
114.70
108.07
99.07
88.98
78.91
68.91
59.70
51.46
45.40
42.41
42.29
43.77
45.07
45.11
43.51
41.47
40.19
40.96
44.10
48.68
53.09
55.50
54.77
50.31
42.58
32.46
21.28
10.52
1.46
-5.01
-8.65
-9.79
-9.33
-8.24
-7.50
-7.83
-9.56
-12.58
-16.42
-20.35
-23.65
-25.73
-26.39
-25.86
-24.73
-23.76
-23.57
-24.48
-26.39
-28.88
-31.39
-33.38
-34.45
-34.39
-33.18
-30.99
-28.17
-25.06
-21.95
-18.92
-15.91
-12.83
-9.67
-6.58
-3.80
-1.61
-0.11
0.74
1.15
1.37
1.64
2.10
2.82
3.84
5.11
6.56
8.11
9.62
10.98
12.05
12.70
12.87
12.59
11.99
11.21
10.37
9.47
8.38
7.00
5.29
3.33
1.28
-0.77
-2.86
-5.18
-7.95
-11.33
-15.26
-19.47
-23.53
-26.93
-29.20
-29.98
-29.11
-26.71
-23.20
-19.13
-15.07
-11.37
-8.14
-5.21
-2.33
0.75
4.13
7.79
11.65
15.52
19.18
22.37
24.83
26.43
27.17
27.25
26.90
26.30
25.54
24.61
23.46
22.08
20.49
18.72
16.74
14.49
11.94
9.17
6.37
3.80
1.66
0.04
-1.12
-2.01
-2.89
-3.96
-5.30
-6.93
-8.77
-10.82
-13.16
-15.91
-19.13
-22.70
-26.26
-29.27
-31.18
-31.61
-30.49
-28.04
-24.64
-20.68
-16.43
-12.01
-7.45
-2.79
1.89
6.43
10.64
14.37
17.47
19.93
21.79
23.16
24.19
25.04
25.83
26.63
27.46
28.31
29.17
30.03
30.90
31.68
32.24
32.31
31.61
29.90
27.05
23.05
18.05
12.32
6.28
0.48
-4.44
-7.85
-9.31
-8.74
-6.52
-3.41
-0.45
1.44
1.53
-0.43
-4.33
-9.62
-15.60
-21.50
-26.68
-30.66
-33.25
-34.45
-34.53
-33.90
-33.08
-32.62
-32.87
-33.87
-35.30
-36.49
-36.71
-35.47
-32.70
-28.82
-24.48
-20.26
-16.39
-12.74
-8.96
-4.78
-0.22
4.39
8.57
11.96
14.41
16.06
17.18
18.04
18.81
19.55
20.27
20.94
21.55
22.08
22.46
22.60
22.45
22.00
21.33
20.56
19.82
19.21
18.74
18.32
17.82
17.07
15.96
14.46
12.67
10.72
8.77
6.93
5.28
3.83
2.60
1.57
0.75
0.13
-0.38
-0.88
-1.56
-2.61
-4.20
-6.42
-9.25
-12.58
-16.14
-19.62
-22.63
-24.83
-25.91
-25.69
-24.13
-21.39
-17.80
-13.80
-9.84
-6.23
-3.11
-0.36
2.25
4.91
7.63
10.13
11.94
12.54
11.62
9.19
5.67
1.76
-1.77
-4.35
-5.74
-5.99
-5.31
-3.97
-2.09
0.21
2.75
5.19
7.06
7.90
7.47
5.91
3.66
1.29
-0.71
-2.14
-3.07
-3.78
-4.57
-5.53
-6.60
-7.54
-8.16
-8.41
-8.47
-8.67
-9.27
-10.41
-12.01
-13.81
-15.55
-17.03
-18.14
-18.75
-18.71
-17.83
-16.01
-13.33
-10.11
-6.81
-3.87
-1.48
0.37
1.91
3.40
4.98
6.64
8.24
9.57
10.42
10.68
10.34
9.52
8.43
7.36
6.54
6.17
6.26
6.75
7.42
8.01
8.20
7.78
6.66
4.94
2.91
0.92
-0.68
-1.70
-2.11
-2.09
-1.90
-1.81
-2.05
-2.75
-3.90
-5.36
-6.88
-8.15
-8.86
-8.88
-8.27
-7.27
-6.27
-5.64
-5.68
-6.51
-8.06
-10.01
-11.83
-12.94
-12.75
-10.94
-7.58
-3.14
1.65
6.07
9.66
12.38
14.54
16.63
19.06
21.98
25.25
28.58
31.64
34.35
36.86
39.58
43.00
47.38
52.67
58.43
64.03
68.96
73.14
77.03
81.47
87.33
95.00
104.20
113.98
123.13
130.72
136.58
141.43
146.63
153.62
163.18
174.94
187.17
197.04
201.35
197.55
184.48
162.87
134.99
103.78
71.73
39.91
7.69
-26.87
-65.96
-110.68
-160.04
-210.53
-256.74
-292.70
-313.92
-319.26
-311.98
-299.43
-291.14
-295.90
-318.83
-359.50
-411.89
-466.35
-512.56
-542.53
-552.47
-543.04
-518.15
-483.11
-442.95
-401.45
-360.99
-322.80
-287.23
-253.94
-221.88
-189.44
-154.79
-116.52
-74.19
-28.48
18.93
66.18
112.00
156.39
200.55
246.13
293.92
342.84
389.67
429.85
459.12
475.03
477.80
470.11
455.85
438.79
421.59
405.58
390.96
377.33
363.88
349.58
333.30
314.08
291.62
266.57
240.54
215.72
194.18
177.18
164.76
155.80
148.52
141.17
132.73
123.29
113.96
106.35
101.76
100.51
101.58
102.95
102.34
97.98
89.04
75.56
58.14
37.76
15.97
-4.71
-20.76
-28.46
-25.49
-12.41
6.74
25.48
37.13
37.08
23.88
-1.18
-35.19
-74.27
-113.02
-143.82
-157.16
-144.36
-101.58
-33.00
48.97
127.52
187.51
220.65
227.39
214.77
191.84
165.59
139.19
112.81
85.72
57.82
29.79
2.11
-25.88
-56.29
-91.98
-134.91
-184.47
-236.66
-284.63
-320.98
-340.85
-344.20
-336.10
-324.51
-316.60
-315.49
-319.23
-322.28
-318.73
-305.23
-282.21
-253.09
-222.10
-192.36
-165.19
-140.58
-118.37
-99.07
-83.99
-74.55
-71.41
-73.82
-79.60
-85.85
-89.88
-90.02
-85.94
-78.46
-69.06
-59.27
-50.28
-42.68
-36.53
-31.55
-27.52
-24.67
-23.79
-25.81
-31.18
-39.19
-47.85
-54.57
-57.26
-55.24
-49.40
-41.64
-33.71
-26.45
-19.62
-12.43
-4.26
4.85
14.25
23.18
31.10
37.84
43.36
47.46
49.67
49.49
46.74
41.79
35.53
29.01
23.07
18.12
14.09
10.62
7.27
3.57
-0.74
-5.71
-10.94
-15.55
-18.40
-18.50
-15.57
-10.42
-4.82
-0.91
-0.34
-3.58
-9.73
-16.79
-22.55
-25.42
-25.12
-22.78
-20.50
-20.36
-23.48
-29.38
-36.10
-41.18
-42.84
-40.90
-36.99
-33.69
-33.20
-36.31
-42.14
-48.89
-55.01
-60.11
-65.17
-72.00
-82.42
-97.67
-117.83
-141.43
-165.23
-184.32
-192.64
-184.41
-156.29
-109.47
-50.56
9.52
58.41
86.14
88.03
65.50
24.55
-27.36
-84.40
-144.10
-206.74
-272.94
-340.71
-404.02
-453.79
-481.08
-480.87
-454.30
-408.24
-352.35
-295.38
-242.36
-194.11
-149.02
-105.44
-63.36
-24.41
9.43
37.43
60.88
82.52
105.21
130.67
158.99
188.89
219.08
249.41
281.26
316.48
355.53
395.82
431.64
455.86
462.75
450.55
422.17
384.06
343.55
306.42
275.71
251.87
233.98
220.65
210.64
202.62
195.02
186.18
174.84
160.70
144.66
128.40
113.85
102.38
94.21
88.45
83.53
77.97
71.00
62.80
54.25
46.37
39.84
34.78
30.82
27.42
24.11
20.65
17.03
13.41
10.05
7.15
4.82
2.94
1.27
-0.53
-2.67
-5.12
-7.61
-9.78
-11.35
-12.33
-13.04
-13.88
-15.19
-17.06
-19.38
-21.89
-24.37
-26.67
-28.68
-30.19
-30.87
-30.35
-28.39
-25.05
-20.74
-16.08
-11.65
-7.80
-4.61
-1.93
0.38
2.42
4.20
5.74
7.10
8.35
9.51
10.49
11.13
11.35
11.28
11.22
11.52
12.37
13.63
14.92
15.74
15.80
15.10
13.94
12.73
11.72
10.94
10.21
9.36
8.36
7.28
6.24
5.22
4.07
2.60
0.75
-1.34
-3.37
-5.05
-6.27
-7.20
-8.11
-9.24
-10.66
-12.24
-13.77
-15.13
-16.45
-17.97
-20.02
-22.72
-25.85
-28.90
-31.09
-31.76
-30.55
-27.58
-23.32
-18.45
-13.59
-9.16
-5.38
-2.25
0.33
2.55
4.58
6.51
8.33
9.89
11.03
11.64
11.81
11.75
11.73
11.96
12.47
13.18
13.94
14.67
15.31
15.80
16.05
15.93
15.35
14.32
13.00
11.62
10.37
9.30
8.32
7.30
6.14
4.86
3.57
2.39
1.35
0.37
-0.70
-1.97
-3.43
-5.02
-6.58
-8.01
-9.25
-10.32
-11.27
-12.22
-13.28
-14.64
-16.42
-18.62
-21.04
-23.23
-24.59
-24.58
-22.94
-19.76
-15.50
-10.79
-6.19
-2.07
1.45
4.40
6.86
8.88
10.46
11.61
12.40
12.98
13.53
14.20
15.04
15.96
16.77
17.30
17.47
17.35
17.08
16.84
16.68
16.54
16.27
15.70
14.76
13.47
11.98
10.48
9.12
7.97
7.02
6.20
5.37
4.40
3.18
1.69
0.01
-1.67
-3.18
-4.40
-5.30
-6.01
-6.73
-7.62
-8.74
-10.01
-11.26
-12.34
-13.21
-13.97
-14.84
-16.05
-17.78
-19.98
-22.38
-24.49
-25.72
-25.56
-23.80
-20.54
-16.25
-11.61
-7.21
-3.49
-0.60
1.52
3.03
4.05
4.65
4.87
4.82
4.67
4.57
4.62
4.81
5.06
5.25
5.35
5.36
5.32
5.31
5.33
5.43
5.65
6.00
6.44
6.76
6.72
6.14
5.03
3.68
2.51
1.84
1.68
1.78
1.69
1.05
-0.24
-2.03
-3.99
-5.86
-7.47
-8.81
-9.97
-11.01
-12.08
-13.35
-15.00
-17.17
-19.76
-22.40
-24.48
-25.34
-24.50
-21.88
-17.80
-12.92
-8.00
-3.72
-0.46
1.75
3.16
4.17
5.11
6.18
7.38
8.59
9.68
10.61
11.35
11.91
12.24
12.31
12.15
11.89
11.76
11.94
12.46
13.15
13.73
13.94
13.67
12.97
12.04
11.03
9.99
8.87
7.62
6.23
4.81
3.49
2.32
1.24
0.10
-1.33
-3.13
-5.20
-7.26
-8.97
-10.11
-10.71
-11.04
-11.47
-12.35
-13.88
-16.07
-18.80
-21.81
-24.78
-27.27
-28.80
-28.90
-27.28
-23.98
-19.34
-14.01
-8.70
-3.99
-0.22
2.56
4.56
6.07
7.43
8.88
10.48
12.13
13.56
14.45
14.61
14.07
13.07
12.00
11.24
10.98
11.19
11.64
12.04
12.16
11.91
11.28
10.39
9.36
8.34
7.48
6.88
6.61
6.61
6.72
6.71
6.37
5.63
4.51
3.15
1.74
0.38
-0.91
-2.19
-3.56
-5.08
-6.75
-8.58
-10.48
-12.44
-14.41
-16.31
-18.11
-19.78
-21.28
-22.55
-23.49
-23.91
-23.54
-22.10
-19.45
-15.60
-10.84
-5.73
-0.92
2.99
5.70
7.23
7.92
8.22
8.47
8.73
8.83
8.52
7.68
6.40
4.99
3.84
3.23
3.26
3.82
4.70
5.64
6.44
6.95
7.10
6.87
6.34
5.64
4.94
4.37
3.95
3.52
2.83
1.67
-0.01
-2.08
-4.22
-6.14
-7.72
-9.05
-10.36
-11.86
-13.67
-15.68
-17.75
-19.69
-21.37
-22.62
-23.22
-22.92
-21.55
-19.17
-16.09
-12.75
-9.55
-6.62
-3.86
-1.09
1.81
4.67
7.17
8.95
9.87
10.01
9.65
9.11
8.67
8.51
8.70
9.22
9.95
10.65
10.99
10.72
9.74
8.23
6.59
5.24
4.42
4.04
3.82
3.35
2.37
0.87
-0.97
-2.88
-4.71
-6.47
-8.31
-10.41
-12.82
-15.49
-18.26
-20.98
-23.50
-25.70
-27.36
-28.17
-27.79
-25.93
-22.58
-18.06
-12.99
-8.06
-3.80
-0.43
2.19
4.37
6.40
8.45
10.50
12.47
14.27
15.90
17.39
18.72
19.79
20.46
20.65
20.41
19.97
19.58
19.41
19.46
19.56
19.48
19.06
18.27
17.17
15.92
14.58
13.22
11.84
10.45
9.08
7.75
6.48
5.26
4.04
2.78
1.42
-0.06
-1.68
-3.45
-5.39
-7.49
-9.74
-12.05
-14.30
-16.36
-18.17
-19.82
-21.54
-23.69
-26.41
-29.54
-32.52
-34.55
-34.84
-33.03
-29.32
-24.35
-19.01
-14.04
-9.83
-6.35
-3.35
-0.52
2.34
5.28
8.17
10.82
13.08
14.89
16.31
17.46
18.47
19.35
20.06
20.54
20.81
20.98
21.23
21.64
22.16
22.60
22.73
22.41
21.65
20.57
19.38
18.23
17.21
16.40
15.77
15.27
14.78
14.14
13.15
11.71
9.86
7.80
5.85
4.24
3.00
1.92
0.61
-1.24
-3.69
-6.49
-9.19
-11.39
-12.94
-14.04
-15.06
-16.38
-18.23
-20.62
-23.47
-26.62
-29.81
-32.65
-34.59
-35.02
-33.53
-30.10
-25.18
-19.51
-13.88
-8.89
-4.81
-1.67
0.71
2.53
3.99
5.23
6.30
7.22
7.96
8.54
9.01
9.50
10.14
10.98
11.92
12.78
13.34
13.50
13.31
12.93
12.50
12.02
11.38
10.42
9.08
7.49
5.89
4.53
3.50
2.70
1.91
0.93
-0.29
-1.62
-2.87
-3.95
-4.92
-5.98
-7.34
-9.08
-11.11
-13.25
-15.42
-17.64
-20.04
-22.61
-25.08
-26.89
-27.40
-26.19
-23.23
-18.97
-14.11
-9.31
-4.93
-1.07
2.40
5.58
8.43
10.80
12.49
13.45
13.79
13.78
13.74
13.93
14.48
15.34
16.36
17.34
18.17
18.78
19.22
19.52
19.70
19.70
19.39
18.70
17.59
16.18
14.62
13.10
11.73
10.51
9.38
8.18
6.79
5.12
3.18
1.07
-1.11
-3.28
-5.46
-7.72
-10.14
-12.80
-15.73
-18.94
-22.48
-26.27
-30.13
-33.59
-36.02
-36.74
-35.36
-31.93
-27.03
-21.49
-16.13
-11.42
-7.44
-4.01
-0.92
1.96
4.60
6.95
8.98
10.74
12.32
13.79
15.15
16.32
17.21
17.76
17.98
17.97
17.90
17.94
18.19
18.62
19.03
19.13
18.69
17.65
16.16
14.49
12.94
11.65
10.59
9.56
8.33
6.74
4.72
2.32
-0.31
-2.98
-5.50
-7.74
-9.72
-11.64
-13.81
-16.54
-19.99
-23.97
-27.99
-31.35
-33.32
-33.45
-31.61
-28.13
-23.61
-18.73
-14.04
-9.82
-6.05
-2.52
1.06
4.85
8.84
12.83
16.51
19.60
21.92
23.45
24.33
24.73
24.86
24.83
24.69
24.45
24.13
23.78
23.45
23.18
22.84
22.28
21.34
19.93
18.11
16.02
13.84
11.72
9.73
7.94
6.40
5.08
3.87
2.51
0.74
-1.57
-4.30
-7.08
-9.53
-11.39
-12.77
-14.04
-15.64
-17.89
-20.86
-24.35
-28.03
-31.48
-34.28
-36.04
-36.40
-35.18
-32.36
-28.19
-23.11
-17.63
-12.18
-7.05
-2.37
1.85
5.61
8.88
11.62
13.82
15.52
16.84
17.96
19.03
20.15
21.31
22.41
23.38
24.13
24.66
24.96
25.05
24.93
24.57
23.94
23.00
21.81
20.42
18.96
17.52
16.14
14.82
13.49
12.15
10.75
9.33
7.85
6.29
4.61
2.79
0.87
-1.11
-3.12
-5.16
-7.27
-9.44
-11.62
-13.68
-15.53
-17.21
-18.88
-20.82
-23.25
-26.19
-29.34
-32.11
-33.77
-33.73
-31.71
-27.91
-22.98
-17.78
-13.10
-9.38
-6.63
-4.47
-2.42
-0.14
2.41
4.98
7.21
8.82
9.79
10.35
10.81
11.39
12.11
12.86
13.47
13.89
14.26
14.75
15.49
16.41
17.26
17.71
17.48
16.51
14.86
12.74
10.36
7.91
5.48
3.14
0.88
-1.36
-3.66
-6.08
-8.60
-11.14
-13.52
-15.61
-17.34
-18.82
-20.22
-21.75
-23.45
-25.17
-26.52
-27.01
-26.23
-24.00
-20.48
-16.07
-11.27
-6.54
-2.14
1.81
5.26
8.15
10.40
11.86
12.49
12.38
11.80
11.11
10.65
10.62
11.04
11.77
12.58
13.22
13.51
13.37
12.83
11.96
10.87
9.60
8.18
6.57
4.75
2.77
0.77
-1.12
-2.82
-4.37
-5.95
-7.75
-9.94
-12.54
-15.46
-18.61
-21.85
-25.00
-27.70
-29.45
-29.70
-28.11
-24.70
-19.99
-14.77
-9.85
-5.70
-2.34
0.54
3.39
6.42
9.62
12.66
15.26
17.24
18.63
19.60
20.32
20.88
21.27
21.50
21.65
21.84
22.20
22.71
23.20
23.45
23.27
22.58
21.48
20.12
18.65
17.15
15.63
14.15
12.73
11.38
10.04
8.55
6.77
4.64
2.29
-0.06
-2.18
-4.06
-5.85
-7.83
-10.20
-12.94
-15.82
-18.50
-20.76
-22.60
-24.27
-26.13
-28.43
-31.27
-34.42
-37.46
-39.81
-40.87
-40.22
-37.68
-33.41
-27.87
-21.70
-15.55
-9.94
-5.10
-0.99
2.60
5.91
9.10
12.16
14.96
17.34
19.16
20.36
20.99
21.17
21.04
20.76
20.51
20.40
20.51
20.77
21.09
21.29
21.22
20.81
20.08
19.12
18.03
16.92
15.86
14.87
13.92
12.95
11.88
10.66
9.30
7.85
6.40
5.03
3.80
2.68
1.60
0.44
-0.94
-2.64
-4.66
-6.94
-9.35
-11.69
-13.80
-15.57
-17.00
-18.24
-19.54
-21.25
-23.62
-26.71
-30.23
-33.59
-36.05
-36.93
-35.91
-33.10
-28.99
-24.20
-19.28
-14.57
-10.20
-6.20
-2.57
0.62
3.35
5.68
7.77
9.77
11.74
13.57
15.06
16.00
16.37
16.32
16.12
16.03
16.16
16.53
17.02
17.53
17.97
18.29
18.42
18.26
17.74
16.85
15.69
14.42
13.17
11.98
10.76
9.41
7.89
6.26
4.66
3.23
1.99
0.87
-0.32
-1.74
-3.48
-5.52
-7.76
-10.07
-12.31
-14.39
-16.25
-17.86
-19.26
-20.59
-22.04
-23.78
-25.77
-27.71
-29.03
-29.14
-27.58
-24.29
-19.63
-14.29
-8.98
-4.27
-0.42
2.62
4.99
6.90
8.45
9.70
10.68
11.41
11.96
12.42
12.87
13.36
13.88
14.39
14.81
15.15
15.44
15.74
16.15
16.66
17.14
17.41
17.25
16.50
15.15
13.35
11.36
9.47
7.88
6.59
5.42
4.10
2.44
0.45
-1.64
-3.57
-5.21
-6.67
-8.23
-10.07
-12.24
-14.57
-16.84
-18.97
-21.09
-23.46
-26.26
-29.47
-32.74
-35.57
-37.44
-37.94
-36.89
-34.31
-30.38
-25.44
-19.91
-14.21
-8.72
-3.69
0.74
4.59
7.94
10.90
13.55
15.86
17.70
18.95
19.54
19.64
19.53
19.52
19.81
20.31
20.78
20.95
20.70
20.14
19.49
18.92
18.42
17.84
17.00
15.84
14.50
13.19
12.02
10.92
9.68
8.08
6.09
3.90
1.85
0.16
-1.17
-2.38
-3.78
-5.55
-7.65
-9.82
-11.74
-13.25
-14.37
-15.36
-16.58
-18.37
-20.93
-24.22
-28.03
-31.91
-35.28
-37.46
-37.88
-36.21
-32.55
-27.38
-21.47
-15.60
-10.32
-5.83
-2.01
1.41
4.64
7.75
10.64
13.12
15.03
16.31
17.00
17.25
17.20
17.05
16.97
17.09
17.53
18.28
19.25
20.21
20.91
21.14
20.80
20.00
18.90
17.69
16.46
15.19
13.84
12.41
11.01
9.80
8.80
7.91
6.83
5.25
3.02
0.24
-2.75
-5.54
-7.81
-9.50
-10.78
-11.93
-13.23
-14.84
-16.88
-19.38
-22.34
-25.66
-29.06
-32.04
-33.96
-34.26
-32.63
-29.18
-24.44
-19.10
-13.84
-9.04
-4.78
-0.90
2.76
6.21
9.27
11.68
13.25
13.98
14.08
13.82
13.42
12.98
12.50
12.03
11.69
11.69
12.15
13.05
14.21
15.33
16.13
16.39
16.01
14.95
13.29
11.25
9.18
7.44
6.27
5.58
4.99
3.97
2.16
-0.42
-3.37
-6.13
-8.31
-9.85
-11.04
-12.26
-13.77
-15.63
-17.77
-20.05
-22.35
-24.48
-26.09
-26.70
-25.83
-23.24
-19.11
-14.00
-8.69
-3.89
-0.03
2.80
4.75
6.05
6.91
7.47
7.80
7.99
8.09
8.15
8.21
8.28
8.30
8.20
7.91
7.38
6.61
5.70
4.75
3.86
3.06
2.27
1.36
0.21
-1.22
-2.89
-4.64
-6.32
-7.85
-9.31
-10.92
-12.98
-15.67
-18.92
-22.32
-25.24
-27.00
-27.08
-25.37
-22.06
-17.63
-12.64
-7.55
-2.72
1.61
5.34
8.37
10.70
12.31
13.22
13.48
13.21
12.62
11.97
11.52
11.37
11.46
11.57
11.45
10.95
10.15
9.22
8.35
7.54
6.60
5.22
3.17
0.46
-2.63
-5.72
-8.50
-10.94
-13.29
-15.94
-19.15
-22.91
-26.83
-30.26
-32.50
-33.00
-31.53
-28.18
-23.33
-17.49
-11.22
-5.01
0.79
5.95
10.41
14.16
17.26
19.76
21.69
23.04
23.78
24.00
23.83
23.50
23.18
22.96
22.76
22.44
21.88
21.06
20.08
19.05
18.03
16.96
15.65
13.91
11.62
8.85
5.80
2.76
-0.08
-2.63
-4.99
-7.39
-10.08
-13.29
-17.08
-21.39
-25.96
-30.41
-34.24
-36.87
-37.79
-36.67
-33.49
-28.58
-22.56
-16.13
-9.88
-4.18
0.89
5.47
9.75
13.84
17.73
21.23
24.11
26.19
27.44
28.00
28.21
28.41
28.82
29.46
30.13
30.58
30.65
30.36
29.92
29.51
29.20
28.84
28.19
27.07
25.47
23.60
21.74
20.06
18.53
16.95
15.10
12.90
10.40
7.77
5.15
2.61
0.09
-2.49
-5.18
-7.96
-10.74
-13.39
-15.85
-18.11
-20.24
-22.39
-24.80
-27.71
-31.27
-35.37
-39.62
-43.36
-45.82
-46.38
-44.75
-41.05
-35.74
-29.45
-22.80
-16.22
-9.99
-4.24
0.94
5.50
9.44
12.83
15.81
18.45
20.78
22.67
24.04
24.89
25.38
25.77
26.25
26.87
27.52
28.02
28.27
28.29
28.15
27.87
27.38
26.55
25.35
23.89
22.42
21.18
20.28
19.61
18.89
17.84
16.24
14.04
11.38
8.46
5.60
3.09
1.14
-0.18
-1.02
-1.70
-2.60
-4.04
-6.13
-8.77
-11.73
-14.76
-17.68
-20.42
-23.01
-25.55
-28.14
-30.89
-33.84
-36.86
-39.62
-41.59
-42.17
-40.88
-37.55
-32.40
-26.01
-19.10
-12.36
-6.24
-0.93
3.52
7.20
10.16
12.48
14.26
15.66
16.88
18.08
19.30
20.47
21.44
22.10
22.47
22.68
22.89
23.22
23.61
23.90
23.89
23.46
22.64
21.55
20.31
18.99
17.54
15.90
14.10
12.21
10.37
8.68
7.11
5.54
3.80
1.80
-0.37
-2.54
-4.53
-6.26
-7.80
-9.32
-10.98
-12.87
-14.99
-17.27
-19.71
-22.31
-25.14
-28.11
-30.98
-33.24
-34.28
-33.58
-30.88
-26.38
-20.62
-14.36
-8.31
-3.01
1.30
4.62
7.04
8.69
9.69
10.14
10.21
10.07
9.92
9.92
10.17
10.64
11.26
11.89
12.45
12.91
13.35
13.86
14.50
15.16
15.58
15.43
14.51
12.84
10.72
8.58
6.73
5.22
3.83
2.20
0.11
-2.40
-5.12
-7.77
-10.20
-12.45
-14.60
-16.74
-18.88
-21.01
-23.17
-25.50
-28.11
-30.85
-33.30
-34.73
-34.46
-32.08
-27.75
-22.07
-15.90
-10.03
-4.91
-0.67
2.83
5.81
8.40
10.66
12.55
14.03
15.11
15.86
16.39
16.81
17.09
17.17
16.94
16.35
15.47
14.50
13.70
13.19
12.90
12.59
11.90
10.59
8.60
6.09
3.33
0.62
-1.90
-4.18
-6.31
-8.44
-10.68
-13.09
-15.66
-18.37
-21.18
-23.99
-26.65
-28.84
-30.13
-30.05
-28.34
-25.06
-20.60
-15.56
-10.52
-5.84
-1.63
2.17
5.60
8.66
11.20
13.07
14.19
14.62
14.59
14.35
14.16
14.16
14.37
14.73
15.11
15.41
15.57
15.58
15.39
14.96
14.21
13.11
11.69
10.01
8.11
5.98
3.65
1.18
-1.25
-3.49
-5.48
-7.32
-9.29
-11.68
-14.61
-17.99
-21.49
-24.72
-27.34
-29.08
-29.73
-29.11
-27.10
-23.73
-19.27
-14.20
-9.03
-4.22
0.03
3.72
6.97
9.83
12.25
14.04
15.07
15.29
14.91
14.28
13.77
13.63
13.92
14.54
15.32
16.12
16.85
17.41
17.68
17.49
16.76
15.49
13.83
11.98
10.08
8.16
6.13
3.94
1.64
-0.64
-2.71
-4.56
-6.27
-8.07
-10.16
-12.62
-15.43
-18.47
-21.61
-24.63
-27.20
-28.87
-29.16
-27.73
-24.58
-20.08
-14.87
-9.65
-4.96
-1.05
2.12
4.74
7.05
9.12
10.92
12.28
13.02
13.13
12.73
12.14
11.69
11.58
11.83
12.22
12.45
12.29
11.69
10.80
9.82
8.86
7.89
6.75
5.25
3.34
1.11
-1.20
-3.35
-5.21
-6.85
-8.49
-10.42
-12.84
-15.76
-18.99
-22.21
-25.02
-27.10
-28.18
-28.08
-26.76
-24.24
-20.66
-16.24
-11.29
-6.19
-1.34
2.95
6.49
9.22
11.18
12.47
13.17
13.36
13.11
12.50
11.67
10.80
10.09
9.65
9.47
9.46
9.43
9.22
8.74
7.99
7.03
5.91
4.65
3.22
1.61
-0.18
-2.10
-4.07
-6.09
-8.21
-10.57
-13.27
-16.33
-19.60
-22.72
-25.21
-26.53
-26.27
-24.23
-20.57
-15.70
-10.22
-4.71
0.39
4.90
8.82
12.24
15.24
17.82
19.91
21.46
22.47
23.07
23.44
23.71
23.95
24.12
24.13
23.98
23.77
23.67
23.81
24.15
24.51
24.55
24.01
22.80
21.06
19.11
17.24
15.60
14.15
12.75
11.27
9.71
8.12
6.60
5.13
3.59
1.81
-0.34
-2.87
-5.63
-8.42
-11.11
-13.67
-16.18
-18.74
-21.35
-23.92
-26.37
-28.69
-31.05
-33.59
-36.31
-38.82
-40.41
-40.35
-38.17
-33.97
-28.40
-22.32
-16.53
-11.41
-6.95
-2.92
0.89
4.51
7.79
10.56
12.74
14.39
15.69
16.82
17.91
18.98
19.99
20.86
21.55
22.05
22.36
22.51
22.50
22.32
21.93
21.34
20.59
19.71
18.76
17.73
16.58
15.19
13.51
11.57
9.51
7.53
5.75
4.24
2.90
1.62
0.25
-1.26
-2.95
-4.80
-6.80
-8.97
-11.29
-13.70
-16.13
-18.53
-20.88
-23.25
-25.67
-28.11
-30.41
-32.21
-33.08
-32.59
-30.50
-26.83
-21.99
-16.66
-11.58
-7.26
-3.88
-1.24
1.12
3.55
6.20
8.90
11.31
13.13
14.28
14.90
15.24
15.56
15.92
16.26
16.41
16.26
15.82
15.23
14.70
14.35
14.17
14.03
13.68
12.95
11.75
10.17
8.43
6.78
5.37
4.19
3.04
1.71
0.01
-2.06
-4.33
-6.56
-8.56
-10.24
-11.64
-12.85
-14.01
-15.22
-16.54
-18.04
-19.76
-21.69
-23.69
-25.50
-26.73
-27.01
-26.03
-23.69
-20.15
-15.79
-11.11
-6.66
-2.78
0.41
3.02
5.29
7.43
9.55
11.57
13.30
14.55
15.21
15.36
15.20
15.01
14.95
15.09
15.37
15.70
15.99
16.18
16.18
15.90
15.25
14.19
12.81
11.26
9.71
8.26
6.88
5.49
4.00
2.39
0.74
-0.83
-2.19
-3.30
-4.22
-5.05
-5.96
-7.09
-8.53
-10.31
-12.34
-14.54
-16.84
-19.17
-21.52
-23.84
-26.03
-27.89
-29.18
-29.63
-29.01
-27.22
-24.33
-20.59
-16.41
-12.19
-8.24
-4.71
-1.58
1.21
3.70
5.88
7.72
9.21
10.42
11.45
12.39
13.27
14.11
14.88
15.57
16.21
16.79
17.24
17.47
17.36
16.87
16.06
15.11
14.20
13.44
12.81
12.18
11.35
10.22
8.85
7.38
6.02
4.91
4.04
3.28
2.44
1.36
-0.05
-1.74
-3.60
-5.46
-7.21
-8.82
-10.33
-11.85
-13.42
-15.04
-16.67
-18.29
-20.03
-22.06
-24.54
-27.36
-30.02
-31.79
-31.87
-29.85
-25.90
-20.72
-15.23
-10.21
-6.01
-2.58
0.33
2.92
5.19
7.03
8.34
9.17
9.71
10.18
10.71
11.24
11.70
11.99
12.15
12.24
12.30
12.30
12.15
11.82
11.39
10.99
10.71
10.50
10.17
9.49
8.38
6.96
5.48
4.10
2.85
1.58
0.06
-1.81
-3.91
-5.98
-7.73
-9.00
-9.83
-10.42
-10.97
-11.64
-12.47
-13.52
-14.85
-16.53
-18.58
-20.84
-22.93
-24.35
-24.59
-23.36
-20.71
-16.95
-12.59
-8.12
-3.89
-0.08
3.21
5.94
8.10
9.66
10.68
11.25
11.52
11.55
11.41
11.15
10.83
10.58
10.51
10.67
11.04
11.51
11.95
12.27
12.40
12.35
12.08
11.52
10.60
9.29
7.69
5.97
4.36
2.99
1.86
0.77
-0.53
-2.25
-4.38
-6.73
-8.93
-10.71
-11.98
-12.89
-13.79
-14.95
-16.54
-18.52
-20.78
-23.18
-25.64
-27.97
-29.87
-30.87
-30.44
-28.28
-24.43
-19.38
-13.87
-8.63
-4.09
-0.36
2.71
5.42
7.99
10.51
12.91
15.05
16.78
17.98
18.64
18.86
18.82
18.66
18.47
18.22
17.83
17.25
16.54
15.80
15.15
14.57
13.94
13.04
11.78
10.23
8.64
7.24
6.14
5.20
4.15
2.77
0.97
-1.10
-3.20
-5.08
-6.66
-8.02
-9.30
-10.65
-12.12
-13.70
-15.34
-17.05
-18.92
-21.06
-23.54
-26.23
-28.82
-30.79
-31.60
-30.81
-28.26
-24.13
-18.90
-13.20
-7.67
-2.78
1.26
4.51
7.23
9.68
12.01
14.15
15.96
17.27
18.04
18.43
18.64
18.83
19.05
19.22
19.26
19.15
18.96
18.82
18.78
18.76
18.55
17.98
16.99
15.69
14.28
12.94
11.74
10.61
9.49
8.32
7.11
5.93
4.77
3.58
2.21
0.56
-1.41
-3.63
-5.99
-8.40
-10.83
-13.25
-15.65
-18.02
-20.37
-22.73
-25.14
-27.54
-29.70
-31.18
-31.53
-30.33
-27.48
-23.19
-17.99
-12.56
-7.51
-3.22
0.27
3.16
5.77
8.33
10.86
13.19
15.05
16.25
16.84
17.10
17.36
17.88
18.68
19.57
20.28
20.62
20.57
20.25
19.83
19.38
18.87
18.18
17.23
16.00
14.59
13.16
11.81
10.56
9.30
7.92
6.31
4.48
2.52
0.56
-1.27
-2.96
-4.60
-6.34
-8.34
-10.67
-13.23
-15.84
-18.34
-20.64
-22.75
-24.70
-26.36
-27.41
-27.39
-25.92
-22.92
-18.75
-14.06
-9.53
-5.59
-2.33
0.45
2.99
5.44
7.72
9.63
11.03
11.91
12.41
12.79
13.26
13.88
14.55
15.09
15.28
15.03
14.39
13.57
12.81
12.25
11.86
11.42
10.66
9.43
7.74
5.80
3.85
2.07
0.48
-1.01
-2.54
-4.21
-6.07
-8.11
-10.31
-12.64
-15.01
-17.24
-19.07
-20.14
-20.19
-19.10
-16.97
-14.04
-10.65
-7.07
-3.52
-0.18
2.82
5.31
7.17
8.35
8.94
9.15
9.22
9.32
9.45
9.52
9.40
8.99
8.35
7.63
6.99
6.53
6.21
5.92
5.47
4.74
3.68
2.33
0.79
-0.88
-2.62
-4.43
-6.33
-8.31
-10.38
-12.58
-14.96
-17.53
-20.17
-22.52
-24.09
-24.36
-23.03
-20.16
-16.19
-11.72
-7.32
-3.34
0.20
3.39
6.35
9.00
11.14
12.59
13.31
13.47
13.40
13.40
13.62
14.01
14.38
14.54
14.43
14.12
13.72
13.32
12.88
12.28
11.37
10.09
8.51
6.74
4.94
3.17
1.43
-0.39
-2.37
-4.52
-6.84
-9.26
-11.80
-14.49
-17.40
-20.49
-23.60
-26.35
-28.27
-28.90
-27.98
-25.53
-21.85
-17.40
-12.64
-7.84
-3.13
1.45
5.84
9.88
13.38
16.16
18.16
19.47
20.28
20.80
21.15
21.41
21.61
21.79
21.97
22.17
22.38
22.54
22.59
22.45
22.03
21.28
20.20
18.88
17.44
16.04
14.75
13.58
12.40
11.09
9.59
7.97
6.35
4.85
3.41
1.92
0.22
-1.72
-3.78
-5.78
-7.57
-9.18
-10.77
-12.57
-14.69
-17.11
-19.66
-22.22
-24.74
-27.29
-29.95
-32.68
-35.18
-36.91
-37.27
-35.82
-32.51
-27.68
-21.95
-16.03
-10.43
-5.41
-0.98
2.96
6.48
9.59
12.26
14.52
16.45
18.18
19.84
21.43
22.82
23.82
24.29
24.20
23.70
23.02
22.40
21.99
21.77
21.59
21.27
20.68
19.78
18.64
17.43
16.30
15.39
14.66
13.99
13.17
12.04
10.55
8.76
6.84
4.99
3.32
1.86
0.58
-0.56
-1.70
-2.97
-4.56
-6.59
-9.04
-11.74
-14.43
-16.91
-19.14
-21.30
-23.60
-26.18
-28.90
-31.44
-33.32
-34.14
-33.58
-31.56
-28.16
-23.69
-18.61
-13.43
-8.63
-4.43
-0.83
2.36
5.34
8.15
10.66
12.61
13.77
14.11
13.82
13.28
12.88
12.91
13.48
14.47
15.64
16.69
17.41
17.72
17.70
17.46
17.11
16.63
15.94
14.96
13.64
12.08
10.42
8.83
7.40
6.14
4.99
3.86
2.65
1.30
-0.23
-1.93
-3.81
-5.79
-7.83
-9.80
-11.63
-13.27
-14.82
-16.47
-18.44
-20.86
-23.63
-26.43
-28.80
-30.24
-30.36
-29.00
-26.17
-22.11
-17.20
-11.90
-6.74
-2.14
1.64
4.55
6.71
8.35
9.62
10.61
11.32
11.72
11.83
11.69
11.38
10.99
10.61
10.37
10.38
10.67
11.23
11.91
12.55
12.97
13.08
12.82
12.15
11.07
9.56
7.69
5.62
3.59
1.83
0.47
-0.54
-1.35
-2.15
-3.10
-4.29
-5.76
-7.53
-9.55
-11.72
-13.90
-16.00
-18.00
-20.07
-22.33
-24.77
-27.11
-28.81
-29.24
-28.00
-25.08
-20.86
-16.01
-11.21
-6.95
-3.46
-0.68
1.60
3.69
5.83
8.17
10.63
12.97
14.86
16.03
16.40
16.13
15.55
15.00
14.66
14.56
14.57
14.57
14.52
14.48
14.53
14.61
14.53
14.01
12.82
10.99
8.81
6.73
5.13
4.19
3.69
3.27
2.51
1.21
-0.56
-2.56
-4.52
-6.35
-8.08
-9.90
-11.95
-14.26
-16.75
-19.26
-21.73
-24.19
-26.73
-29.25
-31.43
-32.68
-32.36
-30.15
-26.17
-21.10
-15.83
-11.13
-7.33
-4.26
-1.43
1.59
4.89
8.19
11.04
13.06
14.18
14.62
14.77
14.96
15.38
16.02
16.78
17.56
18.29
18.88
19.27
19.36
19.09
18.51
17.71
16.84
15.99
15.18
14.31
13.29
12.03
10.54
8.90
7.21
5.56
3.93
2.24
0.37
-1.78
-4.19
-6.76
-9.30
-11.62
-13.63
-15.34
-16.86
-18.39
-20.16
-22.33
-24.94
-27.81
-30.57
-32.66
-33.53
-32.75
-30.28
-26.40
-21.68
-16.71
-11.92
-7.52
-3.48
0.30
3.86
7.16
10.06
12.45
14.30
15.67
16.66
17.39
17.90
18.18
18.25
18.12
17.92
17.81
17.93
18.34
18.94
19.52
19.77
19.48
18.56
17.09
15.30
13.46
11.80
10.40
9.24
8.20
7.15
6.00
4.73
3.33
1.76
-0.06
-2.22
-4.70
-7.34
-9.83
-11.91
-13.48
-14.70
-15.92
-17.53
-19.72
-22.42
-25.34
-28.05
-30.17
-31.34
-31.34
-29.97
-27.19
-23.15
-18.21
-12.93
-7.88
-3.49
0.06
2.84
5.10
7.05
8.81
10.34
11.53
12.29
12.68
12.87
13.13
13.65
14.47
15.43
16.26
16.70
16.69
16.27
15.65
14.98
14.25
13.34
12.06
10.34
8.29
6.17
4.23
2.62
1.25
-0.13
-1.73
-3.64
-5.73
-7.72
-9.38
-10.68
-11.78
-13.00
-14.62
-16.79
-19.44
-22.33
-25.14
-27.46
-28.93
-29.19
-28.04
-25.42
-21.52
-16.72
-11.51
-6.37
-1.68
2.36
5.74
8.56
10.92
12.89
14.40
15.36
15.72
15.57
15.14
14.72
14.52
14.56
14.67
14.67
14.50
14.25
14.15
14.30
14.60
14.75
14.40
13.35
11.67
9.66
7.65
5.86
4.29
2.79
1.16
-0.72
-2.85
-5.12
-7.41
-9.59
-11.59
-13.42
-15.17
-17.04
-19.29
-22.12
-25.63
-29.55
-33.41
-36.47
-38.07
-37.76
-35.49
-31.52
-26.37
-20.62
-14.77
-9.18
-4.05
0.56
4.64
8.26
11.48
14.32
16.79
18.88
20.56
21.81
22.67
23.22
23.55
23.83
24.18
24.62
25.06
25.29
25.10
24.38
23.23
21.89
20.65
19.61
18.63
17.43
15.79
13.73
11.46
9.31
7.44
5.76
4.01
1.97
-0.42
-2.97
-5.43
-7.64
-9.71
-11.91
-14.49
-17.54
-20.93
-24.38
-27.66
-30.67
-33.42
-35.89
-37.94
-39.20
-39.21
-37.56
-34.13
-29.11
-23.07
-16.67
-10.53
-5.00
-0.18
4.03
7.78
11.10
14.00
16.43
18.40
20.02
21.42
22.74
24.00
25.16
26.15
26.90
27.39
27.63
27.65
27.47
27.12
26.60
25.91
25.03
23.94
22.68
21.33
20.00
18.75
17.58
16.39
15.01
13.29
11.18
8.75
6.16
3.62
1.31
-0.72
-2.50
-4.18
-5.94
-7.90
-10.08
-12.41
-14.72
-16.88
-18.87
-20.86
-23.12
-25.90
-29.22
-32.82
-36.14
-38.53
-39.38
-38.38
-35.53
-31.15
-25.72
-19.77
-13.78
-8.11
-3.01
1.37
4.93
7.71
9.83
11.46
12.81
14.02
15.17
16.24
17.16
17.90
18.46
18.89
19.28
19.69
20.08
20.37
20.40
20.10
19.41
18.39
17.09
15.56
13.84
11.94
9.96
7.98
6.13
4.48
2.97
1.42
-0.39
-2.61
-5.19
-7.91
-10.46
-12.64
-14.44
-16.11
-18.01
-20.46
-23.50
-26.87
-29.98
-32.14
-32.76
-31.53
-28.44
-23.87
-18.41
-12.76
-7.47
-2.83
1.19
4.81
8.25
11.54
14.44
16.63
17.87
18.22
17.99
17.63
17.48
17.63
17.97
18.30
18.52
18.67
18.85
19.11
19.33
19.22
18.52
17.06
14.92
12.39
9.83
7.53
5.52
3.69
1.84
-0.14
-2.28
-4.45
-6.60
-8.79
-11.18
-13.98
-17.27
-20.97
-24.85
-28.67
-32.24
-35.36
-37.79
-39.12
-38.92
-36.86
-32.96
-27.62
-21.56
-15.56
-10.15
-5.54
-1.56
2.07
5.59
9.09
12.44
15.40
17.74
19.35
20.32
20.89
21.35
21.93
22.70
23.54
24.30
24.82
25.08
25.10
24.94
24.60
23.99
23.07
21.84
20.44
19.04
17.80
16.74
15.74
14.62
13.19
11.37
9.18
6.72
4.21
1.81
-0.30
-2.07
-3.55
-4.94
-6.47
-8.35
-10.68
-13.45
-16.59
-20.02
-23.68
-27.52
-31.43
-35.16
-38.31
-40.40
-40.95
-39.68
-36.56
-31.91
-26.30
-20.40
-14.83
-9.98
-5.90
-2.38
0.94
4.35
7.94
11.53
14.81
17.47
19.33
20.43
20.97
21.19
21.34
21.53
21.82
22.20
22.66
23.15
23.63
23.93
23.90
23.37
22.32
20.88
19.27
17.73
16.29
14.84
13.15
11.10
8.74
6.29
3.97
1.86
-0.14
-2.25
-4.57
-7.02
-9.36
-11.40
-13.11
-14.74
-16.63
-19.09
-22.17
-25.67
-29.14
-32.02
-33.76
-33.88
-32.14
-28.58
-23.59
-17.81
-11.96
-6.66
-2.23
1.26
3.98
6.11
7.77
8.97
9.68
9.91
9.78
9.52
9.35
9.40
9.67
10.06
10.45
10.84
11.31
11.96
12.79
13.61
14.15
14.13
13.43
12.17
10.59
8.94
7.34
5.76
4.09
2.26
0.25
-1.83
-3.89
-5.82
-7.59
-9.21
-10.80
-12.51
-14.52
-16.92
-19.71
-22.71
-25.60
-27.97
-29.43
-29.66
-28.46
-25.81
-21.89
-17.07
-11.82
-6.58
-1.65
2.85
6.96
10.67
13.90
16.41
17.97
18.56
18.38
17.91
17.61
17.81
18.55
19.64
20.73
21.52
21.83
21.60
20.92
19.90
18.69
17.43
16.18
14.89
13.45
11.73
9.66
7.30
4.79
2.28
-0.13
-2.44
-4.74
-7.12
-9.66
-12.38
-15.27
-18.31
-21.52
-24.88
-28.31
-31.60
-34.42
-36.26
-36.64
-35.22
-31.93
-27.09
-21.30
-15.23
-9.43
-4.16
0.53
4.76
8.63
12.14
15.28
18.04
20.49
22.68
24.64
26.27
27.45
28.11
28.33
28.28
28.15
28.05
27.93
27.69
27.27
26.72
26.15
25.66
25.20
24.59
23.61
22.10
20.06
17.65
15.07
12.54
10.21
8.16
6.37
4.81
3.40
2.07
0.72
-0.71
-2.33
-4.22
-6.38
-8.77
-11.28
-13.73
-16.00
-18.02
-19.89
-21.77
-23.93
-26.53
-29.61
-32.96
-36.12
-38.43
-39.22
-37.99
-34.68
-29.71
-23.81
-17.82
-12.35
-7.68
-3.72
-0.26
2.94
5.97
8.77
11.25
13.31
14.90
16.05
16.83
17.31
17.63
17.93
18.32
18.87
19.50
20.09
20.52
20.73
20.75
20.62
20.35
19.86
19.08
17.96
16.55
15.00
13.43
11.88
10.30
8.53
6.52
4.27
1.94
-0.28
-2.26
-4.00
-5.63
-7.27
-9.02
-10.82
-12.59
-14.22
-15.70
-17.19
-18.98
-21.30
-24.23
-27.49
-30.50
-32.51
-32.84
-31.17
-27.64
-22.78
-17.31
-11.93
-7.10
-2.97
0.49
3.41
5.92
8.06
9.81
11.12
12.04
12.66
13.14
13.61
14.14
14.69
15.13
15.35
15.29
15.02
14.68
14.41
14.28
14.25
14.22
14.09
13.80
13.33
12.71
11.96
11.09
10.10
9.00
7.80
6.51
5.12
3.58
1.84
-0.07
-2.11
-4.13
-6.01
-7.69
-9.18
-10.56
-11.97
-13.52
-15.29
-17.35
-19.77
-22.58
-25.76
-29.10
-32.25
-34.63
-35.70
-35.01
-32.45
-28.29
-23.10
-17.57
-12.34
-7.79
-4.06
-1.04
1.51
3.83
6.10
8.36
10.47
12.23
13.44
14.05
14.21
14.22
14.37
14.80
15.44
16.05
16.43
16.52
16.41
16.29
16.23
16.17
15.96
15.46
14.62
13.52
12.32
11.16
10.08
9.06
8.04
6.98
5.91
4.91
4.06
3.37
2.78
2.09
1.12
-0.26
-1.97
-3.81
-5.51
-6.90
-8.03
-9.10
-10.32
-11.82
-13.50
-15.17
-16.67
-18.02
-19.41
-21.11
-23.34
-26.05
-28.94
-31.52
-33.24
-33.70
-32.74
-30.45
-27.10
-23.05
-18.70
-14.34
-10.21
-6.43
-3.03
0.01
2.78
5.34
7.70
9.76
11.39
12.50
13.05
13.20
13.17
13.22
13.51
14.06
14.75
15.39
15.84
16.02
15.94
15.67
15.24
14.65
13.91
13.03
12.09
11.18
10.35
9.56
8.72
7.74
6.55
5.20
3.77
2.36
1.00
-0.25
-1.42
-2.51
-3.49
-4.39
-5.25
-6.19
-7.34
-8.83
-10.68
-12.78
-14.91
-16.80
-18.26
-19.31
-20.18
-21.24
-22.82
-24.95
-27.34
-29.38
-30.40
-29.91
-27.83
-24.43
-20.25
-15.81
-11.42
-7.21
-3.20
0.57
3.97
6.80
8.95
10.45
11.49
12.25
12.84
13.23
13.27
12.95
12.37
11.79
11.49
11.62
12.13
12.80
13.38
13.67
13.62
13.30
12.80
12.17
11.41
10.47
9.33
8.08
6.86
5.84
5.11
4.60
4.17
3.57
2.59
1.15
-0.69
-2.77
-4.87
-6.79
-8.41
-9.69
-10.74
-11.70
-12.75
-14.00
-15.46
-17.12
-18.90
-20.81
-22.81
-24.77
-26.36
-27.10
-26.54
-24.45
-21.01
-16.71
-12.18
-7.92
-4.20
-1.08
1.49
3.52
5.02
5.97
6.45
6.62
6.69
6.85
7.22
7.80
8.49
9.11
9.42
9.25
8.57
7.59
6.68
6.20
6.30
6.86
7.51
7.88
7.74
7.11
6.14
5.01
3.81
2.56
1.26
-0.08
-1.46
-2.84
-4.24
-5.66
-7.05
-8.35
-9.50
-10.53
-11.53
-12.66
-14.06
-15.77
-17.78
-19.98
-22.25
-24.42
-26.22
-27.30
-27.30
-25.98
-23.33
-19.61
-15.23
-10.64
-6.16
-2.02
1.66
4.85
7.56
9.82
11.67
13.15
14.30
15.17
15.79
16.26
16.65
16.99
17.31
17.62
17.98
18.42
18.97
19.57
20.04
20.19
19.85
18.98
17.67
16.09
14.40
12.73
11.14
9.70
8.41
7.27
6.17
5.02
3.73
2.30
0.83
-0.61
-1.99
-3.38
-4.86
-6.48
-8.22
-10.03
-11.86
-13.71
-15.63
-17.66
-19.87
-22.28
-24.94
-27.86
-30.95
-33.91
-36.20
-37.22
-36.44
-33.72
-29.40
-24.14
-18.71
-13.71
-9.39
-5.66
-2.30
0.93
4.08
7.09
9.78
12.03
13.79
15.08
15.94
16.40
16.51
16.34
16.13
16.14
16.68
17.93
19.81
21.98
23.92
25.13
25.34
24.60
23.26
21.75
20.40
19.28
18.25
17.10
15.74
14.25
12.80
11.48
10.23
8.86
7.22
5.33
3.40
1.70
0.36
-0.75
-2.00
-3.73
-6.12
-8.99
-11.95
-14.65
-16.91
-18.88
-20.89
-23.28
-26.21
-29.53
-32.79
-35.37
-36.63
-36.11
-33.65
-29.43
-23.96
-17.89
-11.92
-6.57
-2.10
1.47
4.35
6.75
8.87
10.77
12.45
13.87
15.10
16.22
17.34
18.50
19.63
20.59
21.25
21.56
21.59
21.48
21.33
21.15
20.85
20.34
19.60
18.72
17.78
16.83
15.78
14.47
12.82
10.88
8.88
7.09
5.74
4.84
4.23
3.63
2.80
1.58
-0.06
-2.08
-4.38
-6.84
-9.29
-11.59
-13.58
-15.24
-16.69
-18.16
-19.95
-22.26
-25.06
-27.98
-30.33
-31.35
-30.48
-27.55
-22.93
-17.37
-11.69
-6.55
-2.20
1.41
4.47
7.20
9.64
11.72
13.31
14.37
14.92
15.09
15.02
14.90
14.86
15.04
15.44
16.01
16.54
16.84
16.71
16.13
15.20
14.10
13.06
12.19
11.53
10.96
10.33
9.49
8.39
7.06
5.58
4.03
2.38
0.52
-1.65
-4.14
-6.81
-9.39
-11.61
-13.33
-14.60
-15.73
-17.07
-18.91
-21.34
-24.19
-27.16
-29.83
-31.81
-32.73
-32.29
-30.35
-26.94
-22.32
-16.98
-11.48
-6.33
-1.87
1.82
4.82
7.29
9.34
10.98
12.18
12.93
13.35
13.62
13.94
14.39
14.90
15.28
15.37
15.11
14.59
13.93
13.25
12.54
11.69
10.57
9.11
7.37
5.47
3.54
1.62
-0.31
-2.28
-4.25
-6.16
-7.94
-9.66
-11.45
-13.52
-16.05
-19.10
-22.48
-25.80
-28.50
-29.96
-29.76
-27.77
-24.19
-19.47
-14.25
-9.08
-4.33
-0.18
3.41
6.54
9.29
11.72
13.86
15.76
17.44
18.95
20.25
21.25
21.83
21.86
21.32
20.37
19.26
18.30
17.71
17.48
17.44
17.32
16.91
16.15
15.11
13.90
12.60
11.18
9.54
7.64
5.50
3.22
0.90
-1.41
-3.71
-6.05
-8.47
-10.93
-13.38
-15.77
-18.13
-20.56
-23.18
-25.97
-28.73
-31.02
-32.26
-31.91
-29.72
-25.85
-20.82
-15.40
-10.31
-5.99
-2.53
0.31
2.91
5.60
8.52
11.56
14.47
16.98
18.92
20.25
21.05
21.44
21.52
21.39
21.18
21.03
21.14
21.60
22.39
23.29
23.98
24.18
23.76
22.81
21.55
20.26
19.10
18.08
17.07
15.88
14.35
12.44
10.27
8.04
5.97
4.17
2.64
1.22
-0.29
-2.10
-4.28
-6.79
-9.49
-12.24
-14.92
-17.48
-19.91
-22.29
-24.72
-27.35
-30.26
-33.35
-36.25
-38.34
-38.95
-37.62
-34.35
-29.58
-24.05
-18.47
-13.28
-8.60
-4.27
-0.17
3.73
7.30
10.37
12.84
14.69
16.05
17.04
17.80
18.41
18.97
19.55
20.21
20.98
21.80
22.58
23.17
23.49
23.50
23.21
22.69
22.00
21.14
20.08
18.79
17.27
15.55
13.77
12.02
10.39
8.87
7.43
5.97
4.39
2.65
0.75
-1.27
-3.29
-5.21
-6.99
-8.66
-10.35
-12.21
-14.32
-16.74
-19.38
-22.13
-24.84
-27.25
-29.02
-29.74
-29.05
-26.79
-23.11
-18.43
-13.38
-8.52
-4.22
-0.63
2.28
4.58
6.29
7.38
7.90
7.96
7.79
7.67
7.79
8.27
9.04
9.97
10.90
11.71
12.39
12.91
13.26
13.36
13.10
12.38
11.15
9.45
7.47
5.45
3.64
2.17
1.02
0.01
-1.06
-2.34
-3.90
-5.70
-7.62
-9.58
-11.54
-13.54
-15.63
-17.85
-20.15
-22.40
-24.32
-25.61
-25.97
-25.16
-23.13
-19.99
-15.98
-11.44
-6.74
-2.23
1.77
5.10
7.77
9.88
11.64
13.18
14.57
15.77
16.72
17.41
17.88
18.21
18.43
18.50
18.41
18.14
17.76
17.38
17.09
16.89
16.60
16.01
14.95
13.34
11.34
9.21
7.20
5.46
3.95
2.47
0.85
-1.03
-3.10
-5.22
-7.21
-8.99
-10.59
-12.11
-13.67
-15.36
-17.30
-19.61
-22.34
-25.37
-28.34
-30.64
-31.65
-30.96
-28.50
-24.65
-19.97
-15.11
-10.54
-6.48
-2.95
0.16
3.03
5.74
8.29
10.59
12.49
13.89
14.77
15.24
15.49
15.73
16.03
16.41
16.76
17.00
17.13
17.17
17.16
17.11
16.95
16.61
16.01
15.16
14.06
12.77
11.35
9.84
8.29
6.73
5.19
3.67
2.16
0.68
-0.80
-2.29
-3.83
-5.48
-7.29
-9.28
-11.41
-13.63
-15.91
-18.31
-20.94
-23.81
-26.75
-29.32
-30.94
-31.08
-29.52
-26.46
-22.42
-18.06
-13.86
-10.06
-6.63
-3.49
-0.61
1.93
3.99
5.51
6.63
7.55
8.52
9.61
10.74
11.73
12.47
12.93
13.23
13.50
13.82
14.18
14.49
14.65
14.56
14.13
13.29
11.97
10.20
8.10
5.93
3.91
2.20
0.77
-0.52
-1.89
-3.47
-5.23
-7.00
-8.58
-9.80
-10.70
-11.44
-12.31
-13.61
-15.49
-17.95
-20.75
-23.48
-25.62
-26.68
-26.31
-24.43
-21.28
-17.30
-13.02
-8.85
-4.98
-1.44
1.86
4.90
7.60
9.82
11.47
12.60
13.31
13.78
14.08
14.24
14.26
14.17
14.04
13.96
13.96
13.98
13.86
13.51
12.91
12.13
11.31
10.51
9.71
8.81
7.68
6.25
4.57
2.72
0.80
-1.12
-3.05
-5.00
-7.03
-9.12
-11.25
-13.39
-15.50
-17.63
-19.83
-22.16
-24.57
-26.82
-28.49
-29.08
-28.20
-25.78
-22.05
-17.57
-12.89
-8.45
-4.36
-0.57
3.09
6.63
9.93
12.69
14.69
15.79
16.08
15.81
15.27
14.69
14.18
13.73
13.29
12.82
12.34
11.94
11.72
11.72
11.82
11.78
11.29
10.14
8.25
5.76
2.98
0.31
-1.95
-3.68
-4.97
-6.13
-7.51
-9.43
-12.02
-15.17
-18.52
-21.57
-23.79
-24.71
-24.09
-21.91
-18.41
-14.00
-9.15
-4.39
-0.11
3.44
6.24
8.41
10.14
11.59
12.79
13.70
14.26
14.48
14.45
14.25
13.96
13.60
13.16
12.67
12.22
11.94
11.88
11.98
12.05
11.82
11.12
9.93
8.34
6.56
4.76
3.03
1.36
-0.32
-2.06
-3.91
-5.86
-7.90
-10.03
-12.28
-14.69
-17.30
-20.02
-22.70
-24.98
-26.44
-26.66
-25.36
-22.50
-18.38
-13.51
-8.49
-3.77
0.41
4.07
7.33
10.27
12.88
15.02
16.53
17.32
17.46
17.15
16.69
16.37
16.38
16.74
17.30
17.83
18.12
18.05
17.68
17.18
16.73
16.45
16.31
16.11
15.60
14.62
13.15
11.35
9.47
7.67
6.02
4.45
2.89
1.30
-0.24
-1.65
-2.91
-4.16
-5.54
-7.20
-9.09
-11.09
-13.07
-15.00
-17.00
-19.25
-21.82
-24.57
-27.14
-29.09
-30.02
-29.67
-28.00
-25.16
-21.47
-17.30
-13.02
-8.95
-5.28
-2.07
0.69
3.02
4.89
6.24
7.04
7.37
7.40
7.39
7.56
7.95
8.50
9.01
9.34
9.42
9.31
9.13
8.93
8.70
8.34
7.79
7.03
6.11
5.10
4.02
2.85
1.54
0.04
-1.62
-3.35
-5.01
-6.55
-7.99
-9.41
-10.96
-12.74
-14.77
-16.98
-19.19
-21.10
-22.34
-22.51
-21.32
-18.68
-14.80
-10.11
-5.21
-0.65
3.26
6.38
8.81
10.68
12.09
13.07
13.63
13.79
13.70
13.53
13.46
13.58
13.88
14.27
14.67
15.05
15.44
15.85
16.20
16.36
16.11
15.31
13.92
12.10
10.08
8.13
6.38
4.86
3.50
2.13
0.62
-1.17
-3.29
-5.69
-8.21
-10.62
-12.71
-14.37
-15.66
-16.83
-18.20
-20.07
-22.57
-25.55
-28.62
-31.17
-32.56
-32.29
-30.14
-26.28
-21.20
-15.57
-10.07
-5.18
-1.11
2.18
4.89
7.25
9.41
11.42
13.23
14.72
15.82
16.53
16.93
17.10
17.21
17.36
17.64
18.07
18.59
19.09
19.45
19.57
19.43
19.05
18.46
17.65
16.61
15.34
13.89
12.33
10.75
9.19
7.68
6.21
4.80
3.42
1.99
0.42
-1.37
-3.39
-5.53
-7.62
-9.52
-11.19
-12.73
-14.28
-15.95
-17.79
-19.78
-21.91
-24.20
-26.60
-29.01
-31.15
-32.61
-32.97
-31.91
-29.37
-25.53
-20.80
-15.67
-10.58
-5.84
-1.60
2.10
5.27
7.93
10.11
11.89
13.40
14.78
16.13
17.41
18.49
19.22
19.53
19.54
19.43
19.40
19.55
19.80
19.98
19.94
19.59
18.97
18.17
17.24
16.21
15.01
13.61
12.01
10.27
8.52
6.92
5.57
4.51
3.66
2.81
1.70
0.12
-1.95
-4.38
-6.89
-9.20
-11.20
-12.97
-14.75
-16.83
-19.36
-22.33
-25.57
-28.82
-31.84
-34.39
-36.21
-37.06
-36.73
-35.12
-32.32
-28.69
-24.74
-21.00
-17.90
-15.58
-14.01
-13.06
-12.66
-12.82
-13.65
-15.13
-17.07
-19.07
-20.64
-21.46
-21.39
-20.50
-18.95
-16.82
-14.04
-10.49
-6.10
-0.95
4.74
10.64
16.39
21.61
26.01
29.36
31.54
32.57
32.60
31.85
30.56
28.91
26.99
24.76
22.15
19.03
15.34
11.15
6.67
2.20
-1.94
-5.41
-7.93
-9.23
-9.09
-7.43
-4.42
-0.50
3.68
7.46
10.38
12.28
13.31
13.73
13.78
13.59
13.15
12.46
11.59
10.64
9.77
9.02
8.40
7.81
7.25
6.69
6.22
5.87
5.58
5.14
4.31
2.93
1.03
-1.12
-3.16
-4.81
-5.98
-6.91
-7.99
-9.62
-12.04
-15.14
-18.53
-21.63
-23.84
-24.73
-24.06
-21.87
-18.38
-14.00
-9.25
-4.63
-0.54
2.83
5.54
7.80
9.88
11.88
13.71
15.12
15.88
15.89
15.37
14.68
14.20
14.16
14.55
15.09
15.48
15.46
14.98
14.16
13.15
12.10
10.99
9.75
8.28
6.50
4.42
2.11
-0.35
-2.88
-5.38
-7.74
-9.88
-11.82
-13.70
-15.72
-18.11
-20.97
-24.22
-27.57
-30.58
-32.71
-33.44
-32.41
-29.50
-24.99
-19.50
-13.77
-8.48
-3.99
-0.29
2.91
5.94
8.99
12.00
14.78
17.12
18.94
20.33
21.44
22.41
23.28
24.01
24.54
24.89
25.13
25.37
25.73
26.20
26.66
26.91
26.72
25.94
24.57
22.80
20.90
19.17
17.81
16.79
15.88
14.78
13.22
11.15
8.70
6.11
3.64
1.40
-0.59
-2.42
-4.17
-5.91
-7.71
-9.64
-11.79
-14.17
-16.72
-19.24
-21.52
-23.49
-25.27
-27.13
-29.43
-32.31
-35.57
-38.68
-40.88
-41.42
-39.87
-36.25
-30.96
-24.73
-18.31
-12.33
-7.13
-2.75
0.95
4.22
7.23
10.08
12.76
15.22
17.41
19.29
20.82
21.99
22.82
23.32
23.57
23.64
23.62
23.58
23.54
23.49
23.42
23.27
23.02
22.61
21.99
21.17
20.16
19.02
17.83
16.61
15.34
14.00
12.58
11.05
9.43
7.72
5.96
4.21
2.53
0.99
-0.44
-1.79
-3.21
-4.77
-6.50
-8.35
-10.25
-12.12
-13.92
-15.74
-17.68
-19.85
-22.33
-25.13
-28.15
-31.22
-34.06
-36.30
-37.56
-37.45
-35.70
-32.24
-27.28
-21.34
-15.11
-9.25
-4.23
-0.16
3.11
5.86
8.32
10.54
12.44
13.92
15.02
15.86
16.63
17.46
18.32
19.07
19.60
19.90
20.05
20.22
20.49
20.83
21.11
21.18
20.91
20.35
19.53
18.48
17.19
15.60
13.75
11.79
9.96
8.47
7.37
6.52
5.62
4.45
2.90
1.09
-0.83
-2.74
-4.65
-6.65
-8.83
-11.13
-13.35
-15.28
-16.87
-18.28
-19.83
-21.85
-24.42
-27.31
-29.98
-31.84
-32.37
-31.32
-28.71
-24.78
-19.88
-14.42
-8.83
-3.55
1.03
4.70
7.40
9.35
10.82
12.05
13.09
13.87
14.30
14.39
14.34
14.43
14.88
15.67
16.56
17.24
17.51
17.40
17.13
16.90
16.71
16.36
15.56
14.13
12.20
10.09
8.15
6.56
5.23
3.93
2.46
0.76
-1.09
-2.94
-4.72
-6.47
-8.26
-10.16
-12.15
-14.14
-16.04
-17.83
-19.62
-21.60
-23.95
-26.78
-29.95
-33.08
-35.53
-36.65
-35.96
-33.37
-29.20
-24.06
-18.60
-13.30
-8.39
-3.86
0.32
4.09
7.35
9.92
11.75
12.96
13.75
14.41
15.09
15.89
16.76
17.66
18.54
19.36
20.06
20.59
20.88
20.89
20.65
20.21
19.63
18.89
17.96
16.79
15.45
14.04
12.73
11.64
10.71
9.79
8.65
7.16
5.31
3.26
1.17
-0.85
-2.77
-4.61
-6.32
-7.79
-8.89
-9.64
-10.22
-10.94
-12.03
-13.43
-14.63
-14.80
-13.08
-8.90
-2.29
6.07
15.01
23.27
29.90
34.57
37.72
40.36
43.57
48.05
53.67
59.51
64.20
66.57
66.29
63.96
60.88
58.41
57.22
56.83
55.44
50.13
37.36
13.70
-23.06
-72.65
-131.39
-192.05
-245.09
-280.97
-292.98
-279.28
-243.39
-192.80
-136.50
-82.36
-35.42
2.33
31.08
51.98
66.18
74.59
78.15
78.07
75.86
72.82
69.55
65.65
59.97
51.48
40.00
26.65
13.46
2.47
-5.23
-10.02
-13.49
-17.56
-23.61
-31.83
-41.15
-49.82
-56.18
-59.40
-59.91
-59.33
-59.90
-63.62
-71.42
-82.73
-95.66
-107.71
-116.82
-122.13
-124.50
-126.37
-131.17
-142.15
-160.95
-186.22
-213.10
-233.95
-240.34
-225.77
-187.61
-127.90
-52.48
30.61
112.91
186.75
245.89
286.10
305.67
305.91
290.88
266.36
238.15
210.52
185.69
164.43
147.20
134.81
128.23
127.55
131.13
135.64
137.23
133.21
123.29
109.74
96.05
85.17
78.13
73.78
69.75
63.86
55.10
44.01
32.12
21.28
13.06
8.38
7.34
9.13
12.13
14.32
13.95
10.32
4.04
-3.29
-10.09
-15.80
-21.27
-28.27
-38.29
-51.41
-65.94
-79.08
-88.15
-91.79
-90.37
-85.66
-79.86
-74.73
-71.16
-69.17
-68.28
-67.85
-67.13
-65.45
-62.22
-57.17
-50.61
-43.44
-36.91
-32.05
-29.18
-27.79
-26.89
-25.53
-23.27
-20.15
-16.29
-11.41
-4.70
4.73
17.21
31.99
47.64
62.86
77.43
92.42
109.34
128.82
149.74
169.53
185.78
197.92
207.89
219.23
235.12
256.30
280.46
303.05
319.28
325.96
322.34
309.55
289.37
263.30
232.06
195.72
154.04
107.02
55.36
0.95
-52.98
-102.48
-144.06
-176.29
-200.66
-221.39
-244.16
-274.25
-315.05
-367.18
-428.39
-494.07
-557.99
-612.99
-652.11
-669.75
-662.85
-631.46
-578.43
-508.26
-425.70
-334.93
-239.29
-141.77
-45.77
44.85
126.19
195.43
251.68
296.26
331.99
361.82
387.58
409.31
425.90
436.07
439.51
437.19
430.96
422.79
414.10
405.41
396.25
385.07
369.33
346.10
313.18
270.50
220.84
169.29
121.43
81.06
49.01
23.31
0.75
-21.45
-44.90
-70.08
-96.86
-124.65
-152.20
-177.27
-197.14
-209.53
-213.59
-210.17
-200.88
-186.81
-167.77
-142.70
-111.12
-74.57
-36.87
-3.25
21.56
34.88
36.61
28.76
14.21
-4.31
-24.81
-45.93
-66.49
-85.29
-101.29
-114.37
-125.90
-138.55
-155.25
-177.32
-203.24
-228.73
-248.60
-259.35
-261.09
-257.55
-254.06
-254.78
-261.12
-272.15
-286.34
-303.26
-323.77
-348.63
-376.50
-403.49
-424.62
-436.50
-439.45
-437.19
-434.66
-434.83
-437.03
-437.62
-432.40
-419.16
-398.71
-373.91
-347.46
-320.15
-290.45
-255.62
-213.45
-163.66
-108.03
-49.50
9.31
67.10
124.05
181.30
240.12
301.32
364.80
429.35
492.22
548.96
593.91
621.59
628.72
615.82
587.46
550.78
512.79
478.02
447.49
419.66
392.36
364.61
337.13
311.45
288.62
268.41
249.43
230.00
209.25
187.49
166.07
146.45
129.46
114.94
102.02
89.57
76.65
62.92
48.75
35.05
22.92
13.11
5.74
0.45
-3.65
-7.63
-12.20
-17.36
-22.41
-26.42
-28.81
-29.59
-28.75
-26.71
-24.32
-22.36
-21.18
-20.53
-19.99
-19.35
-18.69
-16.98
-13.70
-9.36
-5.28
-2.63
-1.68
-1.97
-2.71
-3.05
-0.30
7.05
18.22
30.60
41.55
49.96
55.97
60.72
65.87
75.80
93.51
118.73
148.02
176.55
200.10
214.87
218.46
194.12
136.82
57.53
-22.36
-85.85
-127.98
-152.06
-165.18
-173.38
-179.80
-182.19
-178.08
-168.72
-157.08
-147.36
-142.46
-145.54
-157.93
-178.19
-199.70
-214.67
-217.17
-204.45
-176.53
-129.63
-67.29
2.48
68.90
122.73
157.15
168.97
159.63
129.91
89.95
52.76
27.68
15.26
11.36
11.68
14.05
17.73
22.80
28.73
30.78
25.50
11.40
-10.06
-35.58
-61.94
-87.50
-111.84
-128.58
-138.16
-142.96
-145.38
-146.45
-146.34
-145.22
-148.66
-153.35
-154.96
-149.64
-133.31
-103.90
-62.77
-14.69
33.87
77.48
115.08
145.11
166.58
179.33
183.06
177.91
165.81
150.85
138.44
133.74
137.87
147.91
159.22
167.96
173.34
177.59
183.93
193.81
205.73
214.71
215.29
204.32
182.14
152.00
118.16
83.75
49.90
16.02
-19.69
-58.65
-101.06
-145.51
-189.12
-228.20
-259.41
-281.01
-293.30
-298.12
-296.79
-289.02
-273.08
-247.53
-213.59
-176.16
-142.54
-119.34
-109.37
-110.45
-116.78
-121.90
-121.47
-114.36
-102.04
-87.13
-72.13
-58.71
-47.70
-39.31
-33.32
-29.31
-26.98
-26.16
-26.71
-28.14
-29.29
-28.57
-24.65
-17.31
-7.81
1.59
8.92
13.54
16.39
19.34
23.82
29.93
36.40
41.51
44.19
44.65
44.08
43.73
44.01
44.32
43.61
41.19
37.25
32.76
28.82
26.00
24.13
22.49
20.38
17.48
13.99
10.55
7.83
6.25
5.61
5.16
3.85
0.63
-4.96
-12.45
-20.51
-27.26
-30.98
-30.70
-26.32
-18.47
-8.32
2.82
13.47
22.22
28.00
30.45
30.06
28.00
25.76
24.50
24.79
26.56
29.35
32.83
36.69
40.13
42.15
41.92
39.00
33.94
28.06
22.78
19.48
18.82
19.95
21.72
23.62
25.57
28.53
33.15
38.81
44.25
47.49
45.58
36.19
18.89
-5.24
-32.11
-57.35
-78.17
-92.89
-101.30
-104.14
-101.76
-93.24
-78.03
-54.29
-22.88
6.15
21.27
25.85
26.17
24.55
25.95
34.89
57.39
96.13
148.01
206.19
261.24
304.60
329.23
331.77
293.62
212.65
106.27
0.02
-81.32
-144.74
-201.72
-259.54
-318.46
-372.69
-411.01
-424.90
-414.32
-386.37
-351.88
-318.93
-292.32
-272.73
-259.63
-251.48
-242.14
-229.49
-217.39
-208.78
-202.00
-193.35
-179.18
-157.77
-128.39
-92.62
-55.21
-21.10
6.78
29.14
47.96
64.89
80.26
93.94
105.21
112.48
114.98
113.78
111.79
111.84
115.34
121.90
130.27
139.10
147.22
154.65
162.71
173.27
187.71
206.42
228.80
253.50
278.30
299.74
313.73
317.04
309.06
293.01
275.40
263.29
260.86
267.10
276.08
280.11
273.91
257.07
233.82
210.21
190.68
176.08
164.17
151.79
137.11
120.55
104.14
89.70
77.63
66.64
54.67
40.17
23.16
5.23
-11.19
-24.02
-32.52
-37.49
-40.80
-44.40
-49.44
-55.81
-62.39
-67.71
-70.62
-70.85
-68.97
-66.10
-63.35
-61.45
-60.57
-60.43
-60.60
-60.70
-60.55
-60.14
-59.60
-59.03
-58.45
-57.74
-56.70
-55.13
-52.90
-50.06
-46.85
-43.59
-40.59
-38.04
-35.97
-34.24
-32.72
-31.28
-29.89
-28.57
-27.41
-26.40
-25.52
-24.71
-23.85
-22.86
-21.65
-20.17
-18.42
-16.43
-14.30
-12.17
-10.22
-8.63
-7.55
-7.07
-7.21
-7.94
-9.21
-10.99
-13.22
-15.74
-18.24
-20.38
-21.83
-22.46
-22.42
-22.09
-21.95
-22.37
-23.51
-25.24
-27.23
-29.10
-30.52
-31.25
-31.27
-30.64
-29.57
-28.35
-27.22
-26.38
-25.92
-25.77
-25.83
-25.99
-26.17
-26.31
-26.42
-26.50
-26.44
-26.07
-25.27
-23.94
-21.93
-19.14
-15.53
-11.17
-6.17
-0.65
5.34
11.69
18.39
25.61
33.60
42.43
51.67
60.31
66.95
70.16
68.77
62.55
52.65
41.29
31.00
23.83
20.81
21.84
26.02
31.23
35.69
38.82
41.47
45.03
50.51
58.03
66.82
75.48
80.51
78.98
70.11
55.85
39.69
24.99
14.68
10.74
14.05
21.01
26.62
26.26
16.89
-3.16
-34.09
-73.64
-116.95
-158.24
-197.13
-236.10
-277.92
-323.22
-370.22
-415.69
-455.72
-486.94
-483.21
-429.48
-331.33
-213.77
-102.96
-12.11
57.96
111.81
154.05
187.23
208.92
216.69
211.76
199.30
185.76
175.59
170.34
169.16
169.15
165.02
152.78
131.88
105.46
78.06
52.99
31.69
17.33
8.54
1.76
-5.91
-15.28
-24.93
-32.66
-37.09
-37.80
-35.51
-31.75
-28.36
-26.68
-26.99
-28.49
-29.98
-30.66
-29.99
-28.11
-25.62
-22.98
-20.42
-17.75
-14.47
-9.93
-5.42
0.33
7.55
15.86
24.99
34.65
44.52
54.34
63.96
72.98
81.46
89.16
95.88
101.61
106.45
110.55
114.16
117.70
121.04
124.43
127.89
131.36
134.81
138.16
141.40
144.62
148.15
151.66
155.18
158.50
161.19
162.50
161.30
156.12
144.99
131.24
116.11
100.73
85.79
71.48
57.43
42.90
27.13
9.80
-8.64
-27.91
-47.15
-65.76
-83.74
-101.90
-121.58
-144.02
-169.70
-197.90
-227.63
-257.33
-285.71
-312.39
-337.95
-363.74
-391.57
-423.45
-461.13
-505.74
-556.06
-607.42
-652.27
-682.03
-689.95
-673.55
-635.76
-583.46
-525.10
-467.60
-414.38
-365.92
-321.40
-280.29
-242.88
-209.75
-180.70
-154.60
-129.67
-103.82
-76.22
-47.79
-20.73
2.82
21.67
36.63
49.50
62.09
77.35
96.52
118.38
139.98
158.62
172.50
182.94
192.04
201.41
215.37
235.93
261.42
287.48
310.13
326.54
338.98
350.45
362.69
381.84
411.01
447.97
486.51
520.82
546.25
565.89
584.39
605.89
641.32
697.60
772.65
855.36
930.99
984.20
1010.73
1012.04
943.07
785.57
557.27
304.18
70.90
-100.21
-223.87
-315.50
-385.26
-440.37
-482.03
-510.62
-531.98
-556.15
-591.44
-642.65
-701.85
-757.23
-797.69
-809.90
-787.72
-735.74
-666.72
-595.05
-532.45
-480.01
-434.56
-392.39
-347.46
-297.07
-243.93
-194.30
-154.71
-129.56
-116.46
-110.24
-105.43
-96.11
-79.40
-56.70
-31.77
-9.22
8.59
23.35
38.02
54.55
73.58
93.85
112.72
129.05
140.64
148.45
155.50
165.52
181.42
204.09
231.60
259.20
283.85
298.25
300.95
293.51
278.69
258.46
233.18
202.60
167.76
136.46
108.68
87.67
73.16
61.45
47.86
30.00
9.50
-8.87
-14.29
-10.17
2.71
22.10
46.68
77.64
117.80
168.42
190.37
218.05
231.49
219.04
176.93
112.43
42.25
-13.63
-40.13
-32.94
6.75
57.81
103.28
130.91
136.18
121.52
93.06
57.40
20.11
-8.24
-28.08
-37.37
-35.69
-23.48
-1.25
30.64
72.22
123.61
189.30
263.89
339.68
406.03
453.83
478.90
482.69
470.71
449.55
428.69
409.01
386.92
356.09
311.62
252.00
179.03
96.48
-11.23
-138.17
-263.36
-362.31
-423.29
-450.58
-456.32
-451.76
-443.56
-433.78
-419.09
-399.05
-377.46
-359.70
-348.73
-343.29
-339.15
-332.36
-321.04
-303.23
-280.53
-257.09
-236.78
-220.76
-207.24
-192.25
-172.75
-147.69
-116.33
-80.55
-43.87
-9.84
19.65
42.15
58.87
71.39
80.79
88.23
93.69
96.52
96.07
92.42
86.46
79.85
73.66
68.35
64.13
60.58
57.22
53.67
49.78
45.76
42.23
39.41
37.15
35.13
32.83
30.19
27.30
24.38
21.66
19.43
17.60
15.74
14.35
12.16
8.91
4.79
0.31
-3.86
-7.06
-8.93
-9.45
-8.87
-7.90
-6.82
-5.99
-5.65
-5.49
-4.32
-0.45
7.27
18.21
28.82
33.93
27.79
6.76
-28.86
-74.54
-122.84
-165.63
-195.87
-208.96
-202.04
-175.59
-133.23
-81.34
-27.75
20.36
58.41
85.64
104.74
121.34
140.18
163.43
190.19
217.14
240.13
255.99
263.93
258.94
241.87
216.21
186.24
155.64
126.61
99.91
75.60
53.70
34.44
19.03
7.77
-0.15
-6.31
-12.46
-19.93
-29.27
-40.22
-52.07
-63.22
-72.57
-79.61
-84.30
-86.95
-88.09
-88.43
-88.88
-90.44
-93.57
-98.60
-105.51
-113.68
-122.01
-129.03
-133.38
-134.24
-131.63
-126.25
-119.49
-112.91
-107.71
-104.47
-103.11
-103.19
-104.16
-105.60
-107.14
-108.45
-109.22
-109.15
-108.13
-106.37
-104.45
-103.11
-102.93
-104.03
-105.93
-107.60
-107.79
-105.32
-99.36
-89.53
-76.02
-59.50
-41.13
-22.33
-4.55
11.08
24.02
34.32
42.56
49.43
55.54
61.24
66.61
71.64
76.43
81.17
86.21
91.96
98.67
106.32
114.44
122.23
128.70
133.07
135.01
134.71
132.63
129.18
124.54
118.72
111.85
104.35
96.91
90.05
83.80
77.50
70.09
60.55
48.47
34.23
18.78
3.26
-11.43
-24.82
-36.90
-47.95
-58.34
-68.38
-78.09
-87.22
-95.13
-100.99
-103.98
-103.62
-100.02
-93.79
-85.86
-76.98
-67.44
-57.03
-45.46
-32.76
-19.62
-7.27
3.02
10.46
15.07
17.61
19.19
20.79
23.02
26.08
29.92
34.28
38.71
42.56
45.18
46.32
46.44
46.81
49.08
54.59
63.75
75.73
88.68
100.29
108.40
111.28
107.78
97.40
80.65
59.57
38.11
21.66
15.65
23.33
44.03
72.74
101.65
123.19
132.84
130.39
118.97
102.61
83.92
63.59
41.66
19.49
0.36
-12.01
-16.23
-15.49
-17.20
-30.18
-60.76
-110.30
-175.33
-249.39
-325.23
-395.94
-454.87
-495.18
-510.42
-496.20
-452.01
-381.67
-292.06
-191.03
-85.95
16.57
110.16
188.59
246.82
282.71
297.89
297.79
289.60
279.50
270.64
262.78
253.55
240.45
222.66
200.89
177.90
157.23
141.61
131.75
126.24
122.38
117.69
110.90
100.41
85.66
66.45
42.60
13.93
-18.87
-53.54
-86.48
-114.30
-137.81
-159.68
-183.49
-212.50
-248.49
-291.10
-337.49
-382.88
-421.72
-451.69
-470.34
-475.19
-464.50
-438.90
-402.07
-359.73
-317.42
-258.22
-174.62
-69.85
42.60
146.92
231.19
288.79
319.57
329.43
324.81
309.09
285.94
258.98
231.49
205.39
182.98
166.24
156.67
154.61
156.94
160.37
162.58
162.91
162.10
161.65
163.01
167.11
173.89
181.23
187.24
190.89
192.23
191.90
190.59
188.72
186.51
184.08
181.24
178.52
177.23
179.04
185.31
196.50
211.80
229.17
245.62
257.61
262.12
257.36
243.24
221.22
193.74
163.27
131.57
99.15
65.56
30.06
-7.46
-45.72
-82.02
-112.85
-135.07
-147.07
-149.35
-144.30
-135.33
-125.72
-117.76
-112.61
-110.71
-112.16
-116.97
-124.80
-134.47
-143.72
-149.52
-149.18
-141.59
-128.21
-113.08
-101.81
-99.77
-110.39
-134.03
-167.88
-206.68
-244.15
-274.35
-292.77
-297.05
-287.15
-265.08
-234.34
-198.97
-162.58
-127.66
-95.36
-65.89
-39.19
-15.48
4.62
20.41
31.68
39.12
44.28
49.05
55.02
62.98
72.76
83.51
93.99
102.85
108.73
110.37
106.77
97.46
82.75
63.73
42.09
19.68
-1.85
-21.17
-37.34
-49.91
-59.05
-65.68
-71.33
-77.61
-85.53
-95.09
-105.37
-115.04
-123.06
-129.15
-133.81
-137.79
-141.73
-145.87
-150.11
-154.14
-157.50
-159.45
-158.96
-154.75
-145.70
-131.32
-112.00
-89.03
-64.19
-39.39
-16.32
3.74
19.88
31.64
38.92
42.06
41.69
38.69
34.02
28.59
23.19
18.42
14.67
12.08
10.56
9.80
9.44
9.09
8.53
7.71
6.76
5.87
5.16
4.63
4.13
3.49
2.63
1.62
0.72
0.20
0.14
0.42
0.69
0.61
-0.00
-1.05
-2.27
-3.37
-4.23
-4.88
-5.44
-6.02
-6.59
-7.03
-7.23
-7.10
-6.62
-5.80
-4.65
-3.17
-1.39
0.60
2.66
4.64
6.43
7.96
9.26
10.36
11.34
12.27
13.25
14.37
15.66
17.08
18.51
19.82
20.87
21.62
22.03
22.14
21.93
21.35
20.38
18.99
17.21
15.06
12.58
9.80
6.83
3.79
0.85
-1.85
-4.24
-6.32
-8.11
-9.54
-10.48
-10.73
-10.14
-8.78
-6.85
-4.69
-2.57
-0.62
1.21
3.05
5.00
7.06
9.16
11.18
13.05
14.71
16.14
17.34
18.35
19.23
20.05
20.89
21.74
22.53
23.14
23.48
23.54
23.39
23.14
22.78
22.25
21.43
20.22
18.69
17.03
15.44
14.03
12.73
11.33
9.59
7.40
4.87
2.32
0.05
-1.73
-3.05
-4.11
-5.15
-6.36
-7.83
-9.56
-11.49
-13.53
-15.59
-17.51
-19.13
-20.32
-20.96
-21.07
-20.69
-19.90
-18.79
-17.38
-15.68
-13.70
-11.48
-9.07
-6.55
-3.97
-1.36
1.25
3.82
6.27
8.47
10.31
11.75
12.79
13.53
14.08
14.56
14.95
15.22
15.29
15.14
14.80
14.36
13.90
13.44
12.93
12.29
11.45
10.41
9.23
7.98
6.71
5.39
3.99
2.47
0.88
-0.72
-2.25
-3.69
-5.04
-6.30
-7.40
-8.25
-8.76
-8.93
-8.93
-9.03
-9.46
-10.32
-11.49
-12.67
-13.54
-13.91
-13.74
-13.16
-12.30
-11.22
-9.91
-8.28
-6.28
-3.93
-1.37
1.25
3.77
6.10
8.18
10.00
11.52
12.74
13.64
14.23
14.54
14.58
14.40
14.04
13.56
13.05
12.59
12.25
12.04
11.88
11.66
11.27
10.67
9.91
9.14
8.50
8.07
7.84
7.73
7.61
7.40
7.07
6.65
6.17
5.59
4.89
4.04
3.09
2.11
1.21
0.40
-0.36
-1.22
-2.29
-3.63
-5.20
-6.88
-8.53
-10.05
-11.36
-12.42
-13.14
-13.42
-13.18
-12.47
-11.43
-10.25
-9.15
-8.15
-7.19
-6.14
-4.87
-3.37
-1.73
-0.14
1.30
2.48
3.40
4.11
4.67
5.15
5.67
6.37
7.37
8.70
10.25
11.79
13.01
13.64
13.59
12.94
12.00
11.08
10.45
10.18
10.15
10.12
9.84
9.13
7.94
6.38
4.62
2.83
1.12
-0.47
-1.94
-3.32
-4.65
-5.94
-7.22
-8.50
-9.77
-10.97
-12.01
-12.75
-13.11
-13.08
-12.74
-12.17
-11.43
-10.54
-9.45
-8.12
-6.58
-4.87
-3.04
-1.12
0.89
2.97
5.04
6.97
8.62
9.87
10.69
11.15
11.38
11.46
11.47
11.41
11.24
10.95
10.51
10.00
9.49
9.05
8.71
8.36
7.88
7.15
6.12
4.82
3.42
2.06
0.89
0.05
-0.41
-0.50
-0.29
0.08
0.46
0.66
0.55
0.04
-0.84
-1.98
-3.17
-4.18
-4.84
-5.09
-5.02
-4.78
-4.59
-4.50
-4.47
-4.32
-3.82
-2.85
-1.40
0.39
2.31
4.15
5.73
6.99
7.91
8.56
8.98
9.23
9.33
9.27
9.04
8.63
8.03
7.25
6.30
5.18
3.92
2.53
1.10
-0.30
-1.56
-2.57
-3.23
-3.55
-3.57
-3.47
-3.40
-3.53
-3.91
-4.52
-5.28
-6.11
-7.01
-7.98
-9.01
-10.05
-11.00
-11.75
-12.23
-12.44
-12.40
-12.13
-11.62
-10.83
-9.71
-8.29
-6.69
-5.05
-3.53
-2.26
-1.26
-0.48
0.19
0.86
1.64
2.57
3.61
4.72
5.81
6.86
7.88
8.90
9.91
10.82
11.52
11.89
11.88
11.54
11.03
10.44
9.82
9.08
8.06
6.64
4.90
3.05
1.47
0.46
0.11
0.30
0.72
1.01
1.01
0.76
0.45
0.34
0.51
0.89
1.29
1.53
1.57
1.56
1.69
2.14
2.90
3.83
4.72
5.43
5.93
6.29
6.59
6.87
7.12
7.32
7.49
7.68
7.94
8.23
8.51
8.69
8.68
8.47
8.07
7.47
6.64
5.52
4.08
2.33
0.40
-1.57
-3.35
-4.72
-5.57
-5.92
-5.96
-5.99
-6.23
-6.72
-7.35
-7.84
-7.97
-7.63
-6.86
-5.84
-4.74
-3.70
-2.83
-2.18
-1.73
-1.47
-1.31
-1.12
-0.79
-0.23
0.54
1.41
2.24
2.93
3.41
3.69
3.83
3.88
3.90
3.88
3.78
3.59
3.33
3.01
2.68
2.32
1.91
1.41
0.78
0.03
-0.84
-1.79
-2.77
-3.72
-4.58
-5.29
-5.82
-6.20
-6.47
-6.70
-6.89
-6.96
-6.84
-6.41
-5.67
-4.65
-3.47
-2.27
-1.14
-0.18
0.57
1.18
1.74
2.34
3.01
3.69
4.24
4.52
4.51
4.31
4.15
4.24
4.62
5.17
5.62
5.72
5.36
4.65
3.81
3.09
2.64
2.40
2.21
1.87
1.28
0.42
-0.61
-1.69
-2.72
-3.61
-4.33
-4.84
-5.15
-5.30
-5.32
-5.27
-5.17
-5.01
-4.72
-4.21
-3.43
-2.39
-1.17
0.06
1.14
1.95
2.42
2.59
2.56
2.40
2.24
2.13
2.17
2.41
2.90
3.60
4.36
4.99
5.26
5.12
4.63
3.99
3.44
3.11
2.99
2.96
2.89
2.67
2.27
1.69
0.93
0.03
-0.97
-1.98
-2.80
-3.30
-3.41
-3.20
-2.86
-2.58
-2.46
-2.53
-2.68
-2.81
-2.81
-2.66
-2.33
-1.87
-1.30
-0.69
-0.09
0.46
0.97
1.45
1.91
2.32
2.64
2.78
2.75
2.55
2.26
1.96
1.71
1.53
1.44
1.45
1.57
1.81
2.08
2.28
2.31
2.08
1.60
0.94
0.20
-0.54
-1.22
-1.78
-2.20
-2.47
-2.60
-2.65
-2.75
-2.96
-3.32
-3.73
-4.04
-4.08
-3.80
-3.26
-2.61
-2.02
-1.60
-1.37
-1.30
-1.32
-1.38
-1.43
-1.41
-1.27
-0.96
-0.46
0.19
0.90
1.51
1.88
1.94
1.69
1.22
0.69
0.21
-0.15
-0.46
-0.80
-1.21
-1.67
-2.11
-2.41
-2.53
-2.50
-2.40
-2.36
-2.49
-2.86
-3.43
-4.06
-4.56
-4.73
-4.44
-3.74
-2.77
-1.82
-1.09
-0.72
-0.64
-0.69
-0.67
-0.46
-0.06
0.39
0.72
0.78
0.49
-0.08
-0.80
-1.51
-2.13
-2.68
-3.23
-3.94
-4.87
-6.00
-7.27
-8.60
-10.00
-11.55
-13.37
-15.50
-17.88
-20.33
-22.60
-24.46
-25.75
-26.42
-26.40
-25.66
-24.08
-21.62
-18.23
-13.97
-8.94
-3.29
2.82
9.15
15.40
21.19
26.16
30.06
32.78
34.40
35.08
35.02
34.38
33.24
31.74
30.02
28.31
26.79
25.53
24.43
23.31
21.98
20.36
18.51
16.60
14.80
13.15
11.55
9.87
8.03
6.10
4.24
2.66
1.44
0.50
-0.31
-1.08
-1.82
-2.37
-2.58
-2.39
-1.86
-1.19
-0.60
-0.20
0.04
0.22
0.47
0.83
1.28
1.74
2.15
2.47
2.72
2.91
3.04
3.09
3.09
3.08
3.17
3.42
3.84
4.30
4.58
4.48
3.89
2.86
1.61
0.41
-0.51
-1.12
-1.50
-1.88
-2.47
-3.37
-4.53
-5.84
-7.09
-8.16
-8.94
-9.39
-9.52
-9.34
-8.89
-8.27
-7.57
-6.84
-6.09
-5.33
-4.50
-3.63
-2.75
-1.88
-0.99
-0.01
1.12
2.41
3.72
4.85
5.60
5.87
5.77
5.49
5.26
5.24
5.41
5.64
5.76
5.59
5.11
4.40
3.61
2.92
2.44
2.18
2.03
1.85
1.51
0.97
0.28
-0.50
-1.27
-2.01
-2.74
-3.51
-4.35
-5.25
-6.14
-6.97
-7.77
-8.55
-9.30
-9.95
-10.35
-10.34
-9.87
-8.99
-7.85
-6.63
-5.42
-4.26
-3.15
-2.07
-1.09
-0.32
0.19
0.42
0.45
0.42
0.45
0.61
0.93
1.40
1.97
2.60
3.22
3.77
4.27
4.74
5.17
5.55
5.80
5.86
5.69
5.33
4.91
4.57
4.41
4.44
4.62
4.85
5.04
5.14
5.10
4.93
4.63
4.23
3.77
3.28
2.79
2.31
1.84
1.39
0.93
0.47
-0.01
-0.51
-1.01
-1.46
-1.81
-1.99
-1.91
-1.57
-0.98
-0.21
0.66
1.53
2.35
3.12
3.87
4.63
5.38
6.06
6.59
6.94
7.10
7.12
7.02
6.82
6.53
6.16
5.77
5.41
5.13
4.87
4.55
4.05
3.32
2.40
1.39
0.40
-0.54
-1.43
-2.33
-3.25
-4.16
-4.97
-5.63
-6.11
-6.43
-6.61
-6.73
-6.83
-6.91
-6.98
-6.96
-6.79
-6.43
-5.87
-5.17
-4.42
-3.73
-3.13
-2.62
-2.11
-1.52
-0.82
-0.01
0.83
1.63
2.30
2.83
3.20
3.42
3.52
3.50
3.38
3.19
2.95
2.74
2.60
2.53
2.50
2.41
2.18
1.77
1.21
0.55
-0.17
-0.94
-1.82
-2.89
-4.14
-5.49
-6.77
-7.85
-8.68
-9.35
-10.02
-10.81
-11.75
-12.74
-13.61
-14.24
-14.57
-14.65
-14.53
-14.32
-14.08
-13.84
-13.62
-13.38
-13.13
-12.88
-12.73
-12.78
-13.16
-13.85
-14.75
-15.69
-16.53
-17.23
-17.87
-18.59
-19.48
-20.52
-21.53
-22.26
-22.40
-21.66
-19.87
-16.96
-13.04
-8.34
-3.15
2.23
7.50
12.43
16.81
20.47
23.30
25.26
26.38
26.72
26.36
25.41
23.98
22.23
20.34
18.50
16.88
15.57
14.60
13.95
13.56
13.31
13.13
12.91
12.63
12.27
11.86
11.41
10.91
10.35
9.70
9.01
8.38
7.94
7.76
7.84
8.05
8.24
8.24
7.96
7.43
6.71
5.92
5.12
4.35
3.60
2.89
2.25
1.74
1.39
1.16
0.92
0.51
-0.23
-1.36
-2.80
-4.34
-5.69
-6.65
-7.12
-7.20
-7.05
-6.85
-6.73
-6.68
-6.62
-6.46
-6.09
-5.47
-4.59
-3.50
-2.28
-1.06
0.05
1.00
1.79
2.52
3.31
4.23
5.29
6.39
7.40
8.20
8.74
9.01
9.04
8.83
8.37
7.63
6.63
5.46
4.32
3.42
2.88
2.69
2.69
2.65
2.42
1.96
1.34
0.70
0.13
-0.37
-0.85
-1.37
-1.94
-2.51
-3.01
-3.38
-3.59
-3.63
-3.51
-3.22
-2.75
-2.11
-1.25
-0.16
1.15
2.63
4.16
5.58
6.75
7.61
8.17
8.50
8.72
8.90
9.08
9.23
9.31
9.27
9.07
8.71
8.22
7.69
7.21
6.87
6.68
6.59
6.40
5.96
5.16
4.05
2.77
1.52
0.47
-0.37
-1.11
-1.90
-2.87
-4.00
-5.18
-6.24
-7.10
-7.74
-8.24
-8.66
-8.97
-9.11
-8.95
-8.40
-7.47
-6.28
-4.98
-3.73
-2.63
-1.71
-0.93
-0.25
0.35
0.90
1.42
1.95
2.54
3.26
4.12
5.05
5.95
6.63
7.00
6.99
6.63
6.04
5.35
4.68
4.15
3.81
3.66
3.67
3.72
3.70
3.50
3.02
2.23
1.21
0.07
-1.03
-2.03
-2.94
-3.89
-5.03
-6.46
-8.12
-9.80
-11.30
-12.46
-13.26
-13.80
-14.21
-14.50
-14.61
-14.38
-13.72
-12.62
-11.19
-9.61
-7.98
-6.32
-4.60
-2.80
-0.98
0.71
2.11
3.12
3.81
4.35
4.91
5.58
6.30
6.93
7.33
7.50
7.56
7.68
7.98
8.44
8.88
9.10
8.94
8.37
7.56
6.70
6.01
5.57
5.37
5.26
5.09
4.73
4.09
3.22
2.19
1.10
0.04
-0.95
-1.85
-2.64
-3.36
-4.03
-4.76
-5.66
-6.82
-8.19
-9.59
-10.78
-11.51
-11.68
-11.38
-10.85
-10.37
-10.12
-10.12
-10.23
-10.25
-9.98
-9.35
-8.38
-7.19
-5.89
-4.58
-3.29
-2.02
-0.80
0.33
1.28
2.03
2.58
3.03
3.47
3.99
4.59
5.17
5.65
5.93
6.00
5.94
5.83
5.78
5.85
6.08
6.45
6.94
7.47
7.96
8.30
8.38
8.15
7.60
6.80
5.91
5.08
4.47
4.11
3.98
3.91
3.73
3.30
2.52
1.42
0.11
-1.23
-2.40
-3.25
-3.76
-3.98
-4.11
-4.30
-4.62
-4.99
-5.25
-5.19
-4.67
-3.71
-2.41
-0.95
0.51
1.83
2.95
3.84
4.54
5.11
5.65
6.22
6.81
7.37
7.80
8.05
8.11
8.01
7.84
7.63
7.45
7.31
7.21
7.13
7.05
6.91
6.63
6.18
5.56
4.86
4.17
3.59
3.13
2.73
2.29
1.68
0.88
-0.10
-1.12
-2.06
-2.85
-3.51
-4.16
-4.95
-5.94
-7.11
-8.33
-9.41
-10.27
-10.86
-11.24
-11.47
-11.58
-11.51
-11.17
-10.50
-9.50
-8.26
-6.91
-5.56
-4.24
-2.96
-1.66
-0.40
0.75
1.64
2.15
2.27
2.13
1.94
1.91
2.18
2.68
3.25
3.66
3.73
3.44
2.87
2.26
1.78
1.59
1.68
1.94
2.22
2.35
2.24
1.91
1.43
0.94
0.57
0.37
0.30
0.28
0.12
-0.29
-1.03
-2.05
-3.25
-4.50
-5.71
-6.86
-7.96
-9.07
-10.19
-11.33
-12.48
-13.59
-14.57
-15.31
-15.67
-15.55
-14.95
-14.04
-13.01
-12.09
-11.41
-10.97
-10.70
-10.52
-10.41
-10.41
-10.55
-10.85
-11.25
-11.75
-12.31
-13.02
-13.93
-15.04
-16.30
-17.59
-18.78
-19.73
-20.39
-20.67
-20.47
-19.67
-18.06
-15.51
-11.92
-7.31
-1.88
4.08
10.17
16.00
21.21
25.60
29.05
31.52
33.00
33.48
33.01
31.72
29.83
27.61
25.25
22.87
20.44
17.88
15.17
12.38
9.64
7.11
4.83
2.76
0.84
-0.93
-2.49
-3.75
-4.60
-5.01
-4.99
-4.61
-3.95
-3.11
-2.22
-1.42
-0.83
-0.43
-0.11
0.33
1.02
1.98
3.04
3.97
4.62
4.97
5.13
5.32
5.66
6.20
6.84
7.48
8.05
8.54
8.97
9.32
9.55
9.57
9.35
8.95
8.49
8.11
7.83
7.52
6.97
5.98
4.48
2.64
0.78
-0.73
-1.67
-2.02
-2.00
-1.92
-2.07
-2.68
-3.78
-5.30
-7.00
-8.53
-9.43
-9.23
-7.64
-4.72
-0.99
2.68
5.39
6.58
6.27
4.98
3.44
2.23
1.60
1.41
1.41
1.41
1.44
1.63
2.07
2.71
3.37
3.85
4.08
4.12
4.09
4.12
4.23
4.42
4.63
4.82
4.98
5.10
5.14
5.08
4.93
4.74
4.57
4.43
4.27
3.95
3.28
2.17
0.62
-1.19
-3.01
-4.58
-5.73
-6.49
-7.06
-7.70
-8.60
-9.77
-11.01
-12.05
-12.71
-12.99
-13.06
-13.13
-13.32
-13.60
-13.83
-13.88
-13.69
-13.29
-12.71
-11.94
-10.90
-9.57
-7.97
-6.22
-4.47
-2.82
-1.30
0.13
1.49
2.72
3.75
4.50
4.98
5.30
5.59
5.93
6.30
6.62
6.76
6.68
6.40
6.03
5.69
5.49
5.42
5.41
5.34
5.14
4.77
4.29
3.76
3.24
2.73
2.15
1.44
0.56
-0.45
-1.48
-2.39
-3.13
-3.68
-4.10
-4.51
-4.96
-5.48
-6.07
-6.65
-7.10
-7.30
-7.16
-6.63
-5.77
-4.67
-3.46
-2.25
-1.07
0.07
1.21
2.37
3.56
4.73
5.84
6.78
7.49
7.89
7.96
7.73
7.27
6.74
6.24
5.88
5.72
5.72
5.81
5.87
5.77
5.44
4.89
4.15
3.32
2.44
1.52
0.52
-0.57
-1.75
-2.91
-3.94
-4.73
-5.27
-5.66
-6.06
-6.59
-7.26
-7.95
-8.46
-8.54
-8.07
-7.05
-5.62
-4.02
-2.47
-1.11
0.04
1.04
1.95
2.80
3.57
4.24
4.81
5.30
5.74
6.13
6.41
6.47
6.26
5.85
5.38
5.07
5.10
5.53
6.31
7.21
8.01
8.53
8.71
8.57
8.19
7.64
6.91
5.96
4.77
3.38
1.92
0.61
-0.38
-1.00
-1.37
-1.73
-2.36
-3.46
-5.04
-6.94
-8.92
-10.73
-12.22
-13.36
-14.21
-14.85
-15.34
-15.70
-15.90
-15.94
-15.78
-15.37
-14.62
-13.42
-11.74
-9.64
-7.33
-5.05
-2.99
-1.25
0.22
1.49
2.61
3.54
4.22
4.62
4.81
4.92
5.13
5.57
6.20
6.89
7.50
7.92
8.17
8.34
8.51
8.67
8.74
8.57
8.07
7.26
6.32
5.43
4.74
4.29
3.97
3.68
3.32
2.86
2.32
1.68
0.93
0.06
-0.89
-1.80
-2.51
-2.92
-3.08
-3.13
-3.31
-3.83
-4.73
-5.97
-7.33
-8.63
-9.73
-10.56
-11.17
-11.65
-12.05
-12.39
-12.59
-12.55
-12.14
-11.29
-9.98
-8.28
-6.30
-4.19
-2.04
0.04
1.97
3.69
5.09
6.12
6.76
7.03
7.06
7.00
7.00
7.15
7.46
7.87
8.24
8.43
8.35
7.97
7.36
6.66
6.01
5.50
5.16
4.94
4.76
4.55
4.23
3.83
3.36
2.86
2.32
1.71
1.00
0.19
-0.70
-1.62
-2.52
-3.41
-4.34
-5.32
-6.39
-7.51
-8.63
-9.71
-10.78
-11.93
-13.23
-14.66
-16.11
-17.38
-18.31
-18.83
-18.98
-18.91
-18.76
-18.65
-18.60
-18.62
-18.70
-18.84
-19.06
-19.32
-19.56
-19.68
-19.48
-18.76
-17.30
-14.95
-11.64
-7.43
-2.44
3.12
9.10
15.30
21.46
27.21
32.09
35.66
37.69
38.20
37.49
36.02
34.18
32.22
30.19
28.03
25.71
23.23
20.69
18.16
15.64
13.09
10.41
7.61
4.74
1.96
-0.60
-2.82
-4.69
-6.25
-7.53
-8.53
-9.14
-9.24
-8.71
-7.59
-6.04
-4.32
-2.69
-1.29
-0.11
1.01
2.22
3.56
4.92
6.12
6.99
7.49
7.73
7.86
8.05
8.34
8.66
8.90
8.96
8.84
8.61
8.34
8.08
7.83
7.48
6.93
6.13
5.12
4.00
2.90
1.91
1.05
0.24
-0.62
-1.64
-2.88
-4.36
-6.05
-7.86
-9.66
-11.31
-12.77
-14.05
-15.25
-16.51
-17.90
-19.37
-20.75
-21.83
-22.38
-22.29
-21.53
-20.12
-18.08
-15.40
-12.12
-8.34
-4.32
-0.38
3.15
6.07
8.35
10.10
11.45
12.47
13.21
13.69
13.97
14.18
14.44
14.76
15.05
15.13
14.88
14.34
13.66
13.07
12.69
12.46
12.19
11.68
10.81
9.63
8.26
6.87
5.58
4.42
3.39
2.44
1.51
0.58
-0.40
-1.45
-2.58
-3.78
-4.99
-6.19
-7.37
-8.55
-9.77
-11.09
-12.54
-14.13
-15.82
-17.54
-19.16
-20.55
-21.60
-22.30
-22.68
-22.80
-22.73
-22.47
-21.94
-21.04
-19.64
-17.69
-15.19
-12.23
-8.97
-5.54
-2.07
1.31
4.51
7.40
9.83
11.63
12.74
13.20
13.26
13.27
13.53
14.18
15.14
16.19
17.03
17.46
17.46
17.09
16.52
15.86
15.22
14.62
14.07
13.56
13.03
12.42
11.69
10.87
9.99
9.11
8.25
7.38
6.45
5.41
4.29
3.15
2.07
1.13
0.31
-0.45
-1.30
-2.33
-3.64
-5.21
-6.91
-8.57
-10.04
-11.23
-12.07
-12.53
-12.58
-12.17
-11.30
-10.01
-8.41
-6.64
-4.79
-2.97
-1.24
0.38
1.83
3.12
4.28
5.35
6.38
7.38
8.31
9.16
9.94
10.67
11.38
12.03
12.49
12.68
12.58
12.28
11.95
11.71
11.56
11.36
10.92
10.12
8.94
7.51
5.99
4.51
3.10
1.69
0.25
-1.20
-2.60
-3.86
-5.01
-6.11
-7.32
-8.72
-10.30
-11.96
-13.55
-14.97
-16.21
-17.30
-18.25
-18.96
-19.24
-18.82
-17.56
-15.46
-12.78
-9.83
-6.95
-4.34
-2.00
0.16
2.27
4.33
6.27
7.92
9.14
9.92
10.34
10.52
10.58
10.56
10.51
10.41
10.25
10.03
9.70
9.23
8.65
8.07
7.62
7.40
7.40
7.48
7.42
6.98
6.06
4.74
3.22
1.68
0.27
-1.01
-2.23
-3.49
-4.85
-6.32
-7.90
-9.56
-11.32
-13.20
-15.16
-17.15
-19.06
-20.80
-22.29
-23.49
-24.35
-24.79
-24.68
-23.87
-22.24
-19.77
-16.55
-12.78
-8.72
-4.65
-0.82
2.57
5.38
7.61
9.33
10.68
11.77
12.65
13.37
13.92
14.31
14.57
14.70
14.72
14.59
14.33
13.98
13.62
13.37
13.26
13.27
13.27
13.14
12.74
12.02
10.99
9.75
8.45
7.23
6.23
5.50
4.95
4.43
3.74
2.70
1.29
-0.40
-2.18
-3.84
-5.23
-6.30
-7.14
-7.88
-8.73
-9.83
-11.25
-13.00
-14.98
-17.06
-19.08
-20.92
-22.48
-23.75
-24.71
-25.36
-25.65
-25.50
-24.82
-23.57
-21.72
-19.32
-16.45
-13.21
-9.76
-6.26
-2.92
0.11
2.74
4.98
6.92
8.61
10.09
11.31
12.21
12.78
13.08
13.28
13.50
13.84
14.23
14.56
14.73
14.65
14.35
13.90
13.36
12.78
12.13
11.38
10.50
9.54
8.57
7.70
7.03
6.59
6.31
6.05
5.65
5.03
4.20
3.25
2.29
1.35
0.36
-0.78
-2.17
-3.78
-5.49
-7.12
-8.59
-9.89
-11.10
-12.33
-13.59
-14.80
-15.85
-16.60
-16.90
-16.68
-15.86
-14.41
-12.38
-9.94
-7.29
-4.66
-2.22
-0.05
1.81
3.33
4.48
5.22
5.61
5.73
5.72
5.69
5.70
5.75
5.79
5.77
5.63
5.31
4.73
3.80
2.48
0.83
-1.05
-3.04
-5.11
-7.28
-9.63
-12.19
-14.86
-17.51
-19.94
-22.01
-23.65
-24.86
-25.62
-25.87
-25.48
-24.37
-22.46
-19.76
-16.41
-12.56
-8.40
-4.11
0.13
4.15
7.81
11.00
13.62
15.68
17.20
18.32
19.20
19.98
20.74
21.48
22.19
22.82
23.37
23.81
24.11
24.18
23.96
23.40
22.60
21.70
20.84
20.11
19.48
18.89
18.24
17.47
16.59
15.61
14.57
13.49
12.40
11.30
10.19
9.07
7.92
6.74
5.50
4.20
2.81
1.31
-0.28
-1.93
-3.57
-5.12
-6.56
-7.95
-9.36
-10.89
-12.54
-14.26
-15.89
-17.30
-18.40
-19.21
-19.76
-20.08
-20.10
-19.74
-18.93
-17.67
-16.06
-14.20
-12.16
-9.94
-7.48
-4.78
-1.96
0.79
3.23
5.19
6.62
7.54
8.10
8.47
8.83
9.33
10.02
10.86
11.72
12.44
12.92
13.15
13.19
13.15
13.06
12.91
12.62
12.09
11.27
10.15
8.82
7.38
5.95
4.60
3.34
2.14
0.95
-0.24
-1.44
-2.63
-3.86
-5.19
-6.66
-8.24
-9.83
-11.27
-12.53
-13.62
-14.69
-15.83
-17.08
-18.33
-19.40
-20.09
-20.27
-19.85
-18.80
-17.09
-14.72
-11.76
-8.43
-5.02
-1.86
0.80
2.92
4.62
6.10
7.53
8.95
10.25
11.30
11.99
12.34
12.47
12.48
12.47
12.41
12.26
11.99
11.63
11.22
10.82
10.42
9.97
9.36
8.55
7.50
6.30
5.02
3.76
2.57
1.46
0.38
-0.72
-1.89
-3.11
-4.34
-5.56
-6.77
-7.97
-9.24
-10.61
-12.06
-13.54
-14.92
-16.11
-17.07
-17.85
-18.52
-19.17
-19.77
-20.21
-20.32
-19.90
-18.81
-17.03
-14.64
-11.77
-8.61
-5.31
-2.03
1.08
3.89
6.29
8.18
9.51
10.28
10.56
10.49
10.26
10.04
9.95
10.00
10.12
10.19
10.08
9.72
9.15
8.47
7.87
7.56
7.69
8.34
9.44
10.80
12.18
13.32
14.06
14.35
14.24
13.79
13.07
12.12
10.94
9.54
7.95
6.25
4.53
2.87
1.32
-0.11
-1.46
-2.80
-4.19
-5.67
-7.21
-8.71
-9.96
-10.72
-10.76
-9.98
-8.42
-6.24
-3.71
-1.13
1.30
3.42
5.16
6.49
7.43
8.03
8.45
8.83
9.31
9.92
10.56
11.07
11.30
11.17
10.73
10.09
9.34
8.59
7.85
7.13
6.45
5.79
5.10
4.30
3.38
2.33
1.21
0.12
-0.90
-1.84
-2.77
-3.76
-4.92
-6.28
-7.85
-9.59
-11.39
-13.11
-14.59
-15.72
-16.51
-17.03
-17.43
-17.81
-18.16
-18.35
-18.24
-17.66
-16.56
-14.98
-13.01
-10.76
-8.33
-5.85
-3.41
-1.12
0.92
2.68
4.15
5.33
6.27
7.01
7.60
8.07
8.43
8.70
8.85
8.88
8.80
8.65
8.46
8.28
8.12
7.97
7.80
7.56
7.19
6.63
5.82
4.72
3.36
1.84
0.32
-1.07
-2.23
-3.14
-3.89
-4.57
-5.28
-6.10
-7.09
-8.30
-9.74
-11.39
-13.12
-14.81
-16.29
-17.45
-18.28
-18.81
-19.08
-19.13
-18.84
-18.08
-16.67
-14.51
-11.66
-8.31
-4.77
-1.38
1.60
4.03
5.92
7.39
8.63
9.73
10.73
11.60
12.30
12.81
13.20
13.59
14.05
14.61
15.15
15.51
15.54
15.18
14.53
13.75
13.01
12.41
11.92
11.40
10.72
9.80
8.64
7.33
5.99
4.75
3.73
2.92
2.21
1.46
0.47
-0.82
-2.34
-3.90
-5.33
-6.56
-7.67
-8.82
-10.14
-11.66
-13.27
-14.81
-16.19
-17.41
-18.56
-19.71
-20.86
-21.89
-22.68
-23.07
-22.94
-22.19
-20.74
-18.62
-15.91
-12.82
-9.61
-6.51
-3.68
-1.15
1.08
3.03
4.74
6.21
7.45
8.49
9.31
9.92
10.28
10.45
10.49
10.52
10.60
10.75
10.89
10.93
10.81
10.55
10.27
10.09
10.03
10.03
9.95
9.66
9.09
8.27
7.31
6.30
5.29
4.31
3.33
2.35
1.37
0.44
-0.45
-1.32
-2.18
-3.05
-3.92
-4.72
-5.40
-5.95
-6.44
-6.91
-7.43
-7.97
-8.47
-8.88
-9.17
-9.38
-9.55
-9.64
-9.53
-9.06
-8.09
-6.62
-4.79
-2.82
-0.87
1.03
2.96
5.07
7.36
9.69
11.77
13.32
14.18
14.41
14.23
13.88
13.55
13.31
13.11
12.84
12.46
11.97
11.42
10.85
10.29
9.72
9.15
8.62
8.17
7.83
7.49
7.00
6.18
4.93
3.32
1.54
-0.14
-1.59
-2.81
-3.92
-5.05
-6.33
-7.77
-9.33
-10.92
-12.42
-13.72
-14.76
-15.56
-16.21
-16.83
-17.46
-18.00
-18.24
-17.92
-16.93
-15.29
-13.17
-10.82
-8.44
-6.13
-3.95
-1.89
0.02
1.73
3.16
4.26
5.00
5.44
5.68
5.89
6.19
6.63
7.12
7.54
7.76
7.75
7.59
7.38
7.16
6.88
6.47
5.85
5.03
4.08
3.10
2.16
1.25
0.35
-0.57
-1.54
-2.53
-3.52
-4.53
-5.56
-6.66
-7.82
-9.03
-10.31
-11.63
-12.96
-14.23
-15.40
-16.43
-17.37
-18.25
-19.12
-19.88
-20.31
-20.12
-19.09
-17.14
-14.43
-11.28
-8.06
-5.05
-2.39
-0.11
1.81
3.41
4.69
5.73
6.59
7.37
8.08
8.70
9.16
9.42
9.51
9.52
9.56
9.66
9.73
9.65
9.33
8.77
8.07
7.37
6.76
6.22
5.63
4.87
3.89
2.74
1.58
0.54
-0.32
-1.01
-1.59
-2.08
-2.49
-2.83
-3.17
-3.65
-4.41
-5.51
-6.89
-8.34
-9.67
-10.74
-11.54
-12.20
-12.87
-13.63
-14.42
-15.09
-15.39
-15.14
-14.22
-12.66
-10.57
-8.16
-5.62
-3.10
-0.72
1.43
3.31
4.88
6.15
7.11
7.78
8.16
8.25
8.07
7.70
7.29
7.00
6.95
7.18
7.62
8.11
8.50
8.67
8.61
8.37
8.05
7.74
7.47
7.18
6.83
6.32
5.64
4.79
3.81
2.76
1.70
0.65
-0.37
-1.34
-2.25
-3.07
-3.79
-4.46
-5.13
-5.88
-6.72
-7.56
-8.20
-8.40
-7.97
-6.82
-5.05
-2.88
-0.58
1.65
3.65
5.39
6.84
8.00
8.85
9.36
9.57
9.55
9.44
9.37
9.44
9.69
10.04
10.36
10.52
10.42
10.09
9.60
9.12
8.74
8.51
8.35
8.09
7.58
6.71
5.51
4.06
2.51
0.93
-0.66
-2.34
-4.24
-6.42
-8.86
-11.37
-13.64
-15.34
-16.15
-15.96
-14.82
-13.00
-10.84
-8.67
-6.71
-5.02
-3.59
-2.40
-1.41
-0.61
0.04
0.62
1.25
1.98
2.81
3.61
4.24
4.60
4.71
4.64
4.48
4.29
4.03
3.67
3.19
2.62
1.99
1.25
0.31
-0.92
-2.43
-4.08
-5.69
-7.14
-8.46
-9.84
-11.50
-13.57
-16.00
-18.52
-20.69
-22.07
-22.27
-21.12
-18.70
-15.30
-11.28
-7.01
-2.77
1.33
5.20
8.82
12.12
15.04
17.51
19.52
21.04
22.05
22.53
22.50
22.06
21.43
20.85
20.47
20.32
20.27
20.13
19.74
19.05
18.13
17.12
16.12
15.18
14.30
13.43
12.55
11.64
10.74
9.85
8.94
7.96
6.89
5.75
4.62
3.61
2.78
2.13
1.54
0.86
-0.08
-1.39
-3.07
-5.05
-7.19
-9.32
-11.38
-13.35
-15.30
-17.30
-19.41
-21.61
-23.82
-25.96
-28.01
-29.98
-31.82
-33.33
-34.15
-33.86
-32.10
-28.80
-24.21
-18.84
-13.29
-8.02
-3.29
0.86
4.46
7.56
10.14
12.16
13.60
14.52
15.05
15.31
15.45
15.53
15.60
15.60
15.51
15.31
15.05
14.81
14.67
14.68
14.81
14.95
14.96
14.75
14.26
13.51
12.61
11.65
10.74
9.93
9.25
8.63
7.99
7.24
6.30
5.14
3.82
2.43
1.09
-0.10
-1.14
-2.04
-2.89
-3.79
-4.80
-5.97
-7.26
-8.62
-10.03
-11.48
-12.99
-14.60
-16.30
-18.03
-19.71
-21.29
-22.75
-24.06
-25.11
-25.65
-25.36
-23.97
-21.38
-17.79
-13.61
-9.38
-5.54
-2.30
0.36
2.65
4.74
6.75
8.65
10.36
11.79
12.93
13.79
14.43
14.92
15.32
15.68
16.04
16.45
16.93
17.46
18.00
18.46
18.76
18.83
18.64
18.18
17.48
16.57
15.52
14.42
13.34
12.28
11.24
10.19
9.10
8.03
7.03
6.13
5.34
4.58
3.77
2.86
1.81
0.63
-0.65
-2.04
-3.54
-5.12
-6.74
-8.36
-9.95
-11.49
-13.01
-14.55
-16.15
-17.78
-19.35
-20.69
-21.59
-21.89
-21.41
-20.13
-18.10
-15.44
-12.37
-9.12
-5.94
-3.04
-0.62
1.28
2.67
3.70
4.56
5.38
6.21
6.97
7.57
7.91
8.00
7.94
7.87
7.92
8.13
8.44
8.70
8.83
8.82
8.73
8.62
8.52
8.36
8.01
7.36
6.45
5.44
4.54
3.93
3.60
3.38
3.02
2.36
1.38
0.24
-0.86
-1.79
-2.56
-3.30
-4.16
-5.27
-6.60
-8.12
-9.71
-11.34
-12.98
-14.64
-16.28
-17.83
-19.21
-20.30
-21.06
-21.39
-21.24
-20.53
-19.20
-17.24
-14.72
-11.86
-8.89
-6.10
-3.63
-1.54
0.22
1.72
3.00
4.02
4.79
5.39
5.93
6.57
7.33
8.16
8.85
9.26
9.34
9.20
9.04
8.99
9.12
9.36
9.58
9.71
9.74
9.70
9.61
9.45
9.20
8.81
8.32
7.78
7.27
6.80
6.36
5.88
5.27
4.48
3.43
2.12
0.57
-1.15
-2.94
-4.71
-6.38
-7.96
-9.45
-10.85
-12.12
-13.22
-14.13
-14.88
-15.54
-16.20
-16.83
-17.31
-17.43
-16.96
-15.77
-13.88
-11.45
-8.73
-5.94
-3.28
-0.84
1.28
3.05
4.43
5.46
6.20
6.80
7.35
7.90
8.43
8.88
9.24
9.54
9.86
10.30
10.83
11.38
11.84
12.12
12.18
12.09
11.90
11.66
11.39
11.08
10.74
10.35
9.90
9.36
8.71
7.95
7.12
6.25
5.40
4.57
3.73
2.85
1.88
0.76
-0.52
-1.98
-3.60
-5.32
-7.08
-8.81
-10.44
-11.92
-13.28
-14.49
-15.53
-16.28
-16.61
-16.36
-15.47
-13.98
-12.02
-9.81
-7.57
-5.45
-3.54
-1.88
-0.47
0.73
1.78
2.74
3.67
4.55
5.35
5.98
6.40
6.62
6.72
6.82
7.02
7.33
7.69
7.99
8.12
8.01
7.64
7.06
6.36
5.63
4.96
4.38
3.87
3.36
2.80
2.13
1.31
0.32
-0.80
-2.00
-3.23
-4.41
-5.53
-6.59
-7.64
-8.77
-10.02
-11.41
-12.90
-14.41
-15.87
-17.22
-18.38
-19.32
-20.00
-20.36
-20.33
-19.79
-18.64
-16.84
-14.45
-11.65
-8.68
-5.77
-3.14
-0.91
0.89
2.27
3.29
4.06
4.65
5.17
5.66
6.19
6.75
7.32
7.83
8.27
8.61
8.87
9.07
9.26
9.44
9.57
9.58
9.39
8.97
8.37
7.71
7.09
6.59
6.21
5.88
5.56
5.19
4.80
4.40
3.97
3.49
2.89
2.17
1.33
0.39
-0.65
-1.84
-3.20
-4.74
-6.38
-7.95
-9.29
-10.31
-11.03
-11.58
-12.03
-12.37
-12.45
-12.04
-10.99
-9.25
-6.97
-4.44
-1.96
0.28
2.23
3.99
5.69
7.40
9.00
10.28
11.05
11.25
11.07
10.84
10.88
11.32
12.03
12.71
13.07
13.00
12.56
12.01
11.51
11.12
10.77
10.33
9.71
8.93
8.09
7.25
6.45
5.65
4.79
3.82
2.77
1.74
0.78
-0.06
-0.87
-1.85
-3.19
-5.06
-7.40
-10.00
-12.48
-14.49
-15.86
-16.64
-17.07
-17.31
-17.40
-17.13
-16.22
-14.47
-11.93
-8.88
-5.77
-2.95
-0.62
1.25
2.77
4.06
5.13
5.93
6.37
6.48
6.36
6.19
6.14
6.29
6.58
6.83
6.85
6.53
5.85
4.95
3.96
3.01
2.08
1.08
-0.13
-1.62
-3.36
-5.19
-6.97
-8.61
-10.16
-11.75
-13.50
-15.44
-17.47
-19.47
-21.30
-22.99
-24.57
-26.07
-27.32
-28.02
-27.79
-26.41
-23.96
-20.79
-17.40
-14.22
-11.43
-9.01
-6.84
-4.85
-3.09
-1.77
-1.04
-0.93
-1.33
-2.03
-2.87
-3.74
-4.66
-5.63
-6.60
-7.44
-7.99
-8.08
-7.58
-6.47
-4.74
-2.44
0.40
3.71
7.43
11.43
15.53
19.45
22.89
25.53
27.15
27.63
27.07
25.67
23.65
21.23
18.54
15.64
12.57
9.38
6.19
3.12
0.27
-2.39
-4.96
-7.55
-10.13
-12.43
-13.95
-14.17
-12.72
-9.62
-5.25
-0.27
4.64
8.97
12.44
15.04
16.89
18.16
18.97
19.47
19.72
19.78
19.68
19.44
19.07
18.62
18.09
17.51
16.84
16.06
15.13
14.16
13.27
12.64
12.34
12.30
12.32
12.10
11.41
10.21
8.65
6.99
5.51
4.38
3.58
2.94
2.26
1.34
0.12
-1.33
-2.90
-4.45
-5.91
-7.28
-8.59
-9.90
-11.25
-12.70
-14.24
-15.89
-17.58
-19.25
-20.83
-22.29
-23.70
-25.18
-26.76
-28.34
-29.56
-29.93
-28.97
-26.43
-22.40
-17.29
-11.70
-6.22
-1.31
2.77
6.00
8.44
10.27
11.64
12.71
13.58
14.30
14.91
15.43
15.86
16.19
16.40
16.46
16.35
16.12
15.85
15.64
15.55
15.56
15.58
15.46
15.08
14.38
13.42
12.30
11.18
10.19
9.37
8.69
8.02
7.26
6.29
5.12
3.80
2.47
1.18
-0.04
-1.26
-2.59
-4.13
-5.88
-7.80
-9.82
-11.87
-13.94
-16.03
-18.12
-20.22
-22.31
-24.38
-26.45
-28.46
-30.33
-31.85
-32.85
-33.19
-32.93
-32.32
-31.75
-31.66
-32.41
-34.17
-36.91
-40.46
-44.59
-49.13
-54.04
-59.43
-65.49
-72.32
-79.91
-88.09
-96.66
-105.53
-114.81
-124.75
-135.61
-147.54
-160.46
-174.17
-188.40
-202.91
-217.63
-232.56
-247.77
-263.30
-279.06
-294.72
-309.72
-323.18
-333.40
-338.57
-336.98
-327.01
-307.14
-276.02
-232.88
-177.83
-112.14
-37.80
41.75
121.49
195.40
257.49
303.08
329.66
337.22
328.09
307.43
280.40
250.64
219.75
187.93
154.85
119.98
83.01
44.32
8.62
-19.77
-38.89
-49.56
-54.03
-54.79
-54.49
-55.33
-57.98
-53.80
-34.71
1.91
52.01
108.28
163.82
213.61
255.57
290.84
334.17
396.74
479.07
571.47
662.01
742.83
810.56
864.11
902.88
940.57
986.11
1037.99
1086.93
1125.27
1151.93
1169.49
1179.61
1090.78
860.34
517.33
144.83
-182.39
-431.47
-602.93
-712.57
-779.81
-821.93
-837.09
-823.15
-785.17
-735.27
-686.02
-642.80
-605.89
-574.46
-548.50
-517.96
-476.82
-427.42
-378.53
-338.26
-309.31
-289.03
-272.64
-255.18
-227.08
-182.29
-122.39
-55.23
9.95
59.81
86.10
88.07
72.51
52.63
38.44
32.49
31.65
31.02
27.39
20.94
13.41
6.33
1.21
-0.13
0.20
0.27
-1.06
-3.98
-7.45
-10.63
-13.48
-16.57
-20.30
-24.64
-28.52
-30.87
-31.33
-29.87
-27.38
-25.57
-26.36
-30.96
-39.60
-51.32
-64.88
-79.33
-94.02
-108.68
-122.92
-135.74
-145.14
-148.61
-144.04
-130.42
-107.97
-77.88
-42.30
-4.34
32.36
64.00
87.50
100.73
103.68
98.93
91.03
84.29
81.18
82.06
85.81
91.07
95.93
99.07
100.31
100.54
100.50
100.07
98.74
95.60
89.59
77.86
57.19
25.63
-16.15
-66.06
-121.80
-181.03
-242.68
-295.81
-329.01
-336.80
-322.77
-294.39
-258.19
-218.83
-178.98
-141.80
-110.32
-87.76
-75.17
-72.45
-73.48
-72.36
-65.30
-49.07
-23.93
6.54
36.25
59.66
74.53
83.43
92.17
104.82
128.03
164.79
212.30
262.06
302.76
324.25
321.28
294.32
236.96
156.76
70.18
-5.76
-62.15
-99.93
-125.22
-143.90
-159.59
-174.45
-186.15
-191.44
-187.55
-171.94
-143.12
-101.89
-51.24
4.38
59.44
114.17
164.16
197.17
204.90
186.13
146.28
94.18
47.28
6.87
-26.43
-53.01
-73.74
-91.38
-106.15
-118.08
-127.17
-132.95
-135.55
-132.33
-121.67
-104.13
-82.09
-59.17
-39.00
-23.11
-9.70
4.19
23.14
49.01
79.94
111.64
139.51
160.25
173.07
179.35
180.62
178.77
174.63
168.25
159.63
149.36
138.36
127.80
118.78
111.78
107.50
106.46
109.06
115.23
124.20
134.19
142.63
146.86
144.84
136.18
122.05
104.59
85.76
66.83
48.04
28.63
6.96
-19.01
-50.83
-88.59
-130.21
-172.32
-210.27
-239.03
-254.61
-255.56
-243.30
-221.16
-193.02
-162.29
-132.84
-106.93
-83.94
-60.78
-34.10
-2.37
33.39
70.17
103.96
128.61
139.72
136.96
123.55
103.27
78.26
49.23
16.64
-18.63
-58.64
-105.50
-159.31
-218.08
-279.45
-341.20
-399.87
-449.89
-463.92
-423.58
-334.73
-225.45
-124.73
-47.84
3.51
35.19
55.10
70.29
80.49
82.99
77.74
68.90
62.23
62.00
69.71
84.31
100.12
109.44
106.78
92.98
76.08
67.51
76.52
105.80
149.72
196.08
229.69
239.86
225.53
195.07
160.90
133.05
115.49
106.34
100.99
95.50
89.19
84.76
85.65
93.06
104.45
115.16
121.08
120.64
114.83
106.13
97.10
89.15
81.87
73.50
62.36
47.89
31.06
13.94
-1.30
-13.17
-21.11
-25.47
-27.41
-28.03
-27.98
-27.35
-26.03
-24.09
-21.79
-19.44
-17.57
-17.75
-21.27
-28.57
-39.11
-51.84
-65.72
-79.62
-91.75
-100.56
-106.75
-111.22
-114.17
-114.99
-113.08
-108.50
-101.76
-92.63
-81.71
-72.78
-68.65
-69.34
-71.96
-73.19
-71.76
-69.12
-67.69
-72.26
-91.26
-130.25
-189.14
-262.39
-342.85
-425.22
-507.26
-587.56
-637.59
-636.33
-580.79
-487.85
-379.38
-270.55
-169.33
-88.70
-22.89
31.99
74.57
104.42
124.34
140.46
157.65
178.57
204.05
235.62
272.12
308.49
339.68
362.37
375.76
380.39
377.22
367.39
353.41
336.04
313.61
284.88
250.25
212.33
174.80
141.35
114.75
96.95
86.97
81.08
75.19
65.89
50.92
28.89
-0.53
-36.19
-74.86
-112.29
-143.99
-165.17
-172.58
-165.98
-148.41
-124.50
-98.18
-71.15
-43.19
-13.49
19.19
54.18
88.13
115.76
132.31
135.56
126.00
105.95
78.53
49.28
24.82
11.53
13.83
33.32
68.47
114.51
164.62
200.67
207.67
182.28
135.61
84.41
40.43
7.71
-15.03
-30.57
-41.58
-48.23
-49.91
-47.13
-42.15
-37.84
-35.19
-35.41
-38.39
-43.43
-48.29
-50.64
-49.63
-46.36
-42.66
-39.95
-38.83
-38.99
-39.86
-40.17
-38.83
-35.90
-32.64
-30.32
-29.56
-30.27
-31.63
-32.63
-32.05
-29.31
-25.75
-23.95
-26.04
-32.71
-43.06
-54.89
-65.99
-75.11
-77.69
-71.78
-58.97
-43.25
-28.59
-17.47
-10.59
-7.04
-4.49
0.57
10.66
25.14
42.79
60.47
73.91
79.40
74.51
57.99
30.64
-5.82
-49.06
-97.04
-145.49
-190.20
-227.14
-252.79
-264.31
-258.27
-232.17
-185.67
-121.37
-44.42
39.29
124.61
207.58
279.63
328.34
344.55
329.01
291.59
245.01
199.76
161.48
133.83
112.97
96.09
82.41
72.67
67.25
65.10
64.66
64.09
62.32
59.25
55.69
52.90
52.64
55.91
62.21
71.09
79.95
85.73
85.62
77.02
58.60
32.07
1.33
-29.45
-55.82
-77.57
-97.39
-107.33
-102.97
-86.75
-64.88
-42.18
-30.31
-24.94
-23.03
-25.13
-34.68
-49.16
-68.95
-92.60
-117.02
-139.25
-156.18
-168.30
-177.50
-184.93
-191.80
-199.79
-210.08
-224.09
-243.48
-267.11
-292.19
-313.18
-322.60
-316.35
-297.28
-273.59
-254.72
-246.10
-244.86
-243.20
-232.90
-208.75
-171.70
-128.12
-85.23
-47.15
-13.87
17.77
55.36
96.83
134.09
159.15
169.27
167.46
159.21
149.11
141.68
137.23
133.72
130.21
127.53
128.00
134.50
149.63
171.34
196.23
218.65
231.86
231.62
217.62
193.45
164.83
137.54
115.48
100.26
90.60
83.39
75.81
66.30
54.67
41.65
28.40
15.90
4.88
-4.86
-14.29
-24.06
-34.01
-43.11
-49.90
-53.17
-52.49
-48.21
-41.44
-33.51
-25.39
-17.51
-9.96
-2.87
3.31
7.97
10.72
11.60
11.21
10.57
10.68
12.25
15.40
19.73
24.50
29.09
33.10
36.38
38.97
40.91
42.34
43.22
43.38
42.54
40.58
37.61
33.95
29.99
26.01
22.45
19.40
16.44
12.97
8.67
3.81
-0.92
-4.72
-7.25
-8.11
-7.87
-8.15
-10.62
-15.76
-22.30
-27.71
-29.42
-26.12
-16.97
-3.49
10.78
21.99
28.18
30.08
30.25
31.48
35.27
43.78
57.04
72.49
86.34
95.38
97.77
92.89
80.91
55.17
16.52
-27.64
-67.94
-99.76
-124.59
-145.97
-164.91
-177.89
-179.15
-161.72
-122.04
-63.66
3.95
69.33
122.66
157.90
174.22
164.98
139.31
114.11
103.75
112.40
132.98
152.59
159.95
155.19
140.82
125.78
117.38
117.34
122.51
127.97
130.38
129.01
124.68
115.45
101.82
83.45
60.12
34.09
11.16
-0.83
4.58
28.94
66.53
107.95
141.49
157.10
150.01
122.01
79.98
32.76
-11.95
-49.63
-77.94
-97.03
-108.78
-115.70
-120.36
-124.81
-130.23
-136.58
-142.68
-146.00
-143.99
-135.07
-119.35
-98.71
-76.41
-56.15
-41.14
-33.45
-33.45
-40.15
-51.66
-65.69
-80.09
-93.19
-103.92
-111.75
-116.58
-118.66
-118.41
-116.31
-112.69
-107.67
-100.94
-91.91
-79.91
-64.71
-46.94
-28.26
-10.96
2.81
11.96
16.85
19.11
20.82
23.56
27.83
33.06
38.06
41.67
43.10
41.92
37.91
30.94
21.13
9.02
-4.32
-17.42
-28.81
-37.38
-42.71
-45.09
-45.27
-44.24
-42.90
-41.85
-41.23
-40.78
-39.93
-38.13
-35.01
-30.61
-25.32
-19.77
-14.61
-10.38
-7.39
-5.74
-5.32
-5.87
-6.98
-8.20
-9.10
-9.48
-9.41
-9.24
-9.36
-9.94
-10.86
-11.64
-11.82
-11.15
-9.74
-7.97
-6.23
-4.64
-3.06
-1.24
0.95
3.35
5.59
7.34
8.48
9.14
9.64
10.15
10.66
11.04
11.18
11.17
11.22
11.49
11.90
12.05
11.48
9.90
7.42
4.46
1.62
-0.68
-2.34
-3.51
-4.40
-5.14
-5.72
-6.06
-6.09
-5.85
-5.45
-4.98
-4.54
-4.21
-4.13
-4.43
-5.24
-6.57
-8.31
-10.30
-12.32
-14.25
-16.06
-17.84
-19.65
-21.50
-23.20
-24.41
-24.69
-23.72
-21.42
-18.04
-14.14
-10.38
-7.29
-5.10
-3.74
-2.92
-2.36
-1.87
-1.37
-0.89
-0.47
-0.10
0.23
0.58
0.96
1.33
1.66
1.85
1.84
1.61
1.18
0.64
0.11
-0.29
-0.57
-0.88
-1.45
-2.55
-4.29
-6.63
-9.35
-12.19
-14.89
-17.29
-19.29
-20.80
-21.79
-22.22
-22.10
-21.46
-20.39
-18.98
-17.32
-15.47
-13.47
-11.33
-9.09
-6.77
-4.44
-2.20
-0.14
1.63
3.08
4.21
5.01
5.51
5.69
5.57
5.22
4.78
4.38
4.14
4.11
4.27
4.54
4.81
4.96
4.89
4.55
3.95
3.16
2.22
1.13
-0.16
-1.70
-3.45
-5.22
-6.78
-7.98
-8.80
-9.33
-9.68
-9.84
-9.69
-9.15
-8.26
-7.25
-6.44
-6.02
-5.99
-6.16
-6.28
-6.21
-5.91
-5.48
-4.96
-4.34
-3.51
-2.42
-1.11
0.28
1.61
2.68
3.43
3.84
3.96
3.86
3.66
3.43
3.26
3.22
3.40
3.85
4.55
5.35
6.00
6.19
5.72
4.58
2.99
1.30
-0.17
-1.21
-1.83
-2.22
-2.55
-2.96
-3.43
-3.89
-4.25
-4.55
-4.87
-5.34
-5.98
-6.74
-7.46
-7.97
-8.23
-8.30
-8.35
-8.50
-8.79
-9.09
-9.23
-9.13
-8.80
-8.40
-8.07
-7.86
-7.71
-7.47
-7.01
-6.34
-5.50
-4.66
-3.85
-3.06
-2.19
-1.16
0.01
1.23
2.39
3.42
4.34
5.20
6.03
6.79
7.43
7.94
8.40
8.97
9.81
10.92
12.15
13.25
13.91
13.99
13.48
12.56
11.44
10.27
9.12
7.93
6.60
5.06
3.33
1.50
-0.26
-1.81
-3.03
-3.92
-4.51
-4.93
-5.30
-5.73
-6.28
-6.92
-7.55
-8.09
-8.47
-8.69
-8.83
-8.93
-9.03
-9.00
-8.73
-8.09
-7.07
-5.82
-4.56
-3.54
-2.85
-2.48
-2.25
-1.99
-1.59
-1.00
-0.28
0.55
1.42
2.34
3.32
4.33
5.37
6.39
7.35
8.21
8.95
9.55
9.98
10.22
10.21
9.96
9.51
8.99
8.49
8.12
7.83
7.44
6.75
5.62
4.05
2.25
0.51
-0.93
-2.00
-2.77
-3.35
-3.84
-4.26
-4.56
-4.73
-4.85
-5.10
-5.69
-6.69
-8.04
-9.50
-10.73
-11.46
-11.60
-11.22
-10.51
-9.72
-9.01
-8.43
-7.89
-7.28
-6.48
-5.50
-4.43
-3.41
-2.56
-1.91
-1.42
-1.02
-0.63
-0.22
0.23
0.75
1.38
2.15
3.09
4.10
5.11
6.02
6.80
7.47
8.05
8.56
8.94
9.14
9.06
8.66
7.97
7.10
6.20
5.42
4.92
4.70
4.75
4.91
5.05
5.07
4.92
4.63
4.26
3.84
3.35
2.70
1.75
0.41
-1.32
-3.29
-5.26
-6.98
-8.27
-9.12
-9.66
-10.09
-10.54
-11.06
-11.57
-11.89
-11.86
-11.37
-10.36
-8.92
-7.20
-5.47
-3.93
-2.70
-1.73
-0.87
0.05
1.13
2.35
3.62
4.84
5.98
7.00
7.88
8.55
8.93
8.96
8.70
8.28
7.88
7.61
7.42
7.20
6.79
6.13
5.32
4.54
3.95
3.60
3.39
3.12
2.64
1.97
1.23
0.66
0.41
0.47
0.72
1.04
1.31
1.56
1.83
2.12
2.32
2.28
1.83
0.88
-0.56
-2.34
-4.24
-5.99
-7.31
-7.98
-7.96
-7.30
-6.22
-4.91
-3.55
-2.23
-0.99
0.19
1.27
2.22
3.01
3.66
4.23
4.76
5.28
5.80
6.28
6.74
7.21
7.74
8.37
9.09
9.85
10.58
11.16
11.54
11.70
11.68
11.53
11.25
10.81
10.11
9.11
7.86
6.51
5.25
4.22
3.38
2.59
1.61
0.34
-1.23
-2.91
-4.45
-5.64
-6.43
-6.85
-7.09
-7.37
-7.92
-8.83
-10.09
-11.47
-12.69
-13.46
-13.64
-13.23
-12.35
-11.13
-9.63
-7.87
-5.87
-3.73
-1.58
0.44
2.27
3.94
5.54
7.06
8.44
9.56
10.33
10.77
10.98
11.09
11.22
11.42
11.71
12.05
12.40
12.72
12.93
13.00
12.93
12.76
12.52
12.22
11.78
11.12
10.18
8.97
7.60
6.22
4.96
3.88
2.97
2.20
1.52
0.85
0.10
-0.84
-2.07
-3.61
-5.33
-6.99
-8.37
-9.39
-10.19
-11.09
-12.36
-14.13
-16.19
-18.05
-19.13
-19.01
-17.60
-15.13
-12.07
-8.87
-5.80
-2.94
-0.25
2.34
4.78
6.94
8.70
10.02
10.95
11.61
12.14
12.63
13.11
13.59
14.04
14.46
14.78
14.95
14.92
14.69
14.30
13.81
13.29
12.73
12.12
11.45
10.76
10.10
9.51
8.94
8.31
7.48
6.35
4.93
3.29
1.56
-0.13
-1.69
-3.11
-4.36
-5.41
-6.26
-6.89
-7.35
-7.71
-8.14
-8.78
-9.77
-11.17
-12.87
-14.63
-16.13
-17.03
-17.11
-16.31
-14.77
-12.74
-10.50
-8.26
-6.16
-4.21
-2.40
-0.68
0.97
2.59
4.15
5.66
7.07
8.36
9.49
10.42
11.12
11.61
11.92
12.12
12.30
12.58
13.00
13.54
14.13
14.56
14.66
14.30
13.46
12.25
10.89
9.58
8.48
7.61
6.93
6.37
5.82
5.20
4.42
3.44
2.23
0.86
-0.54
-1.80
-2.82
-3.59
-4.26
-5.05
-6.20
-7.84
-9.91
-12.19
-14.32
-15.94
-16.75
-16.65
-15.71
-14.16
-12.23
-10.15
-8.03
-5.91
-3.76
-1.56
0.70
2.94
5.09
7.01
8.59
9.78
10.61
11.17
11.58
11.92
12.19
12.37
12.40
12.28
12.03
11.73
11.43
11.14
10.89
10.63
10.36
10.02
9.51
8.78
7.80
6.66
5.49
4.42
3.49
2.67
1.83
0.83
-0.36
-1.72
-3.20
-4.74
-6.26
-7.71
-8.98
-10.04
-10.93
-11.80
-12.89
-14.32
-16.08
-17.87
-19.27
-19.86
-19.39
-17.85
-15.48
-12.62
-9.60
-6.67
-3.94
-1.47
0.72
2.60
4.17
5.42
6.34
6.97
7.35
7.54
7.58
7.48
7.25
6.89
6.47
6.07
5.90
6.12
6.84
8.03
9.49
10.91
11.96
12.43
12.27
11.62
10.70
9.72
8.79
7.89
6.94
5.90
4.78
3.64
2.51
1.39
0.22
-1.09
-2.57
-4.19
-5.83
-7.40
-8.87
-10.29
-11.76
-13.35
-15.02
-16.63
-17.96
-18.77
-18.89
-18.25
-16.89
-14.98
-12.71
-10.32
-7.98
-5.78
-3.76
-1.90
-0.20
1.34
2.60
3.52
4.06
4.32
4.50
4.79
5.35
6.15
7.06
7.91
8.51
8.83
8.93
8.94
8.99
9.15
9.40
9.66
9.85
9.89
9.73
9.38
8.87
8.26
7.61
6.96
6.27
5.48
4.53
3.41
2.17
0.94
-0.17
-1.10
-1.91
-2.75
-3.80
-5.15
-6.77
-8.55
-10.42
-12.37
-14.41
-16.54
-18.58
-20.23
-21.14
-21.05
-19.93
-17.98
-15.55
-12.96
-10.48
-8.19
-6.13
-4.35
-2.91
-1.87
-1.29
-1.11
-1.23
-1.53
-1.92
-2.32
-2.64
-2.78
-2.60
-1.96
-0.81
0.80
2.72
4.78
6.82
8.79
10.71
12.66
14.71
16.95
19.40
22.06
24.82
27.50
29.78
31.34
31.96
31.58
30.33
28.47
26.21
23.68
20.89
17.79
14.33
10.57
6.65
2.71
-1.07
-4.55
-7.57
-10.00
-11.77
-12.93
-13.61
-14.00
-14.22
-14.26
-14.05
-13.47
-12.49
-11.23
-9.85
-8.49
-7.17
-5.85
-4.46
-3.03
-1.65
-0.47
0.45
1.14
1.72
2.34
3.04
3.76
4.34
4.61
4.47
3.94
3.15
2.28
1.54
1.02
0.74
0.62
0.51
0.28
-0.18
-0.89
-1.85
-3.07
-4.50
-6.08
-7.70
-9.23
-10.58
-11.72
-12.73
-13.75
-14.86
-16.05
-17.14
-17.91
-18.08
-17.53
-16.25
-14.39
-12.18
-9.81
-7.40
-4.98
-2.52
0.03
2.64
5.22
7.62
9.66
11.17
12.12
12.55
12.60
12.43
12.23
12.10
12.09
12.17
12.25
12.22
11.99
11.51
10.80
9.92
8.94
7.91
6.84
5.74
4.60
3.42
2.21
0.97
-0.36
-1.81
-3.44
-5.28
-7.29
-9.38
-11.38
-13.12
-14.43
-15.21
-15.41
-15.09
-14.34
-13.29
-12.04
-10.63
-9.03
-7.21
-5.15
-2.95
-0.73
1.30
3.05
4.49
5.72
6.84
7.90
8.87
9.65
10.21
10.56
10.83
11.11
11.43
11.73
11.94
12.03
12.02
11.99
11.92
11.73
11.29
10.45
9.16
7.51
5.66
3.82
2.22
0.99
0.16
-0.35
-0.73
-1.24
-2.05
-3.23
-4.71
-6.33
-7.96
-9.56
-11.09
-12.55
-13.85
-14.90
-15.65
-16.13
-16.45
-16.72
-16.91
-16.83
-16.23
-14.90
-12.76
-10.00
-6.88
-3.69
-0.72
1.89
4.05
5.70
6.84
7.57
8.04
8.42
8.84
9.32
9.83
10.24
10.50
10.56
10.42
10.10
9.61
9.01
8.36
7.76
7.27
6.91
6.61
6.27
5.85
5.35
4.82
4.33
3.88
3.39
2.80
2.06
1.17
0.20
-0.78
-1.78
-2.82
-3.98
-5.26
-6.64
-8.07
-9.49
-10.89
-12.22
-13.44
-14.45
-15.15
-15.42
-15.19
-14.39
-13.01
-11.11
-8.80
-6.26
-3.69
-1.28
0.85
2.62
4.03
5.10
5.87
6.37
6.68
6.88
7.06
7.29
7.59
7.99
8.46
9.00
9.54
10.04
10.43
10.63
10.64
10.47
10.15
9.67
8.98
8.01
6.75
5.27
3.72
2.23
0.86
-0.46
-1.83
-3.36
-5.05
-6.79
-8.43
-9.83
-10.99
-11.93
-12.66
-13.12
-13.15
-12.64
-11.54
-9.95
-8.06
-6.05
-4.03
-2.01
-0.01
1.94
3.73
5.25
6.42
7.24
7.78
8.07
8.14
7.98
7.58
7.00
6.35
5.81
5.50
5.42
5.45
5.35
4.94
4.14
3.05
1.90
0.86
0.03
-0.69
-1.50
-2.57
-3.92
-5.45
-6.99
-8.43
-9.76
-11.04
-12.32
-13.59
-14.80
-15.89
-16.90
-17.90
-18.95
-20.04
-20.98
-21.50
-21.31
-20.19
-18.06
-15.07
-11.46
-7.59
-3.75
-0.16
3.12
6.14
8.96
11.58
13.94
15.93
17.48
18.65
19.59
20.47
21.36
22.19
22.80
23.06
22.96
22.62
22.21
21.81
21.44
21.01
20.41
19.55
18.46
17.15
15.71
14.21
12.80
11.57
10.58
9.78
9.00
8.07
6.88
5.40
3.72
1.91
0.04
-1.93
-4.00
-6.19
-8.45
-10.72
-12.93
-15.06
-17.10
-19.05
-20.91
-22.73
-24.54
-26.37
-28.22
-30.02
-31.66
-32.95
-33.62
-33.37
-31.92
-29.11
-25.00
-19.93
-14.39
-8.90
-3.82
0.71
4.74
8.38
11.73
14.75
17.29
19.21
20.45
21.08
21.34
21.49
21.73
22.13
22.56
22.83
22.78
22.36
21.65
20.81
19.92
18.98
17.88
16.50
14.84
12.99
11.17
9.55
8.23
7.16
6.19
5.13
3.89
2.47
1.00
-0.41
-1.68
-2.81
-3.91
-5.11
-6.50
-8.11
-9.88
-11.82
-13.88
-16.09
-18.43
-20.84
-23.23
-25.43
-27.35
-28.89
-29.97
-30.47
-30.28
-29.27
-27.41
-24.77
-21.54
-17.91
-14.05
-10.05
-6.01
-2.01
1.80
5.29
8.35
10.95
13.08
14.73
15.90
16.59
16.88
16.94
16.97
17.11
17.36
17.62
17.70
17.53
17.14
16.67
16.20
15.77
15.28
14.58
13.57
12.24
10.65
8.92
7.14
5.34
3.52
1.68
-0.21
-2.12
-4.02
-5.88
-7.70
-9.53
-11.44
-13.54
-15.86
-18.34
-20.82
-23.00
-24.56
-25.18
-24.64
-22.90
-20.10
-16.56
-12.64
-8.68
-4.88
-1.32
1.96
4.91
7.44
9.43
10.86
11.78
12.35
12.77
13.15
13.52
13.85
14.14
14.44
14.85
15.36
15.89
16.21
16.07
15.32
13.93
12.06
9.95
7.83
5.83
3.97
2.15
0.28
-1.76
-3.97
-6.32
-8.74
-11.16
-13.55
-15.87
-18.12
-20.27
-22.25
-23.94
-25.16
-25.71
-25.42
-24.15
-21.91
-18.82
-15.12
-11.10
-7.05
-3.16
0.46
3.74
6.69
9.28
11.47
13.21
14.48
15.30
15.77
16.00
16.09
16.11
16.07
15.95
15.71
15.37
14.96
14.53
14.07
13.49
12.66
11.44
9.80
7.81
5.66
3.57
1.69
0.05
-1.45
-2.96
-4.59
-6.44
-8.52
-10.82
-13.33
-16.02
-18.78
-21.35
-23.32
-24.24
-23.79
-21.86
-18.70
-14.76
-10.58
-6.57
-2.93
0.32
3.29
6.02
8.45
10.43
11.87
12.75
13.19
13.42
13.66
14.05
14.62
15.24
15.74
15.93
15.70
15.02
13.93
12.51
10.84
8.95
6.81
4.41
1.73
-1.14
-4.08
-6.89
-9.46
-11.80
-14.00
-16.25
-18.70
-21.35
-24.07
-26.57
-28.51
-29.54
-29.34
-27.68
-24.48
-19.87
-14.22
-8.12
-2.20
3.01
7.24
10.52
13.04
15.01
16.52
17.51
17.86
17.58
16.83
15.96
15.30
15.04
15.17
15.46
15.65
15.52
14.98
14.15
13.13
12.01
10.76
9.22
7.21
4.63
1.50
-2.02
-5.61
-9.01
-12.04
-14.70
-17.16
-19.65
-22.39
-25.45
-28.85
-32.52
-36.37
-40.17
-43.51
-45.70
-45.93
-43.54
-38.31
-30.63
-21.37
-11.62
-2.33
5.93
12.92
18.62
23.11
26.42
28.63
29.91
30.55
30.87
31.17
31.56
32.00
32.40
32.58
32.49
32.14
31.64
31.16
30.83
30.68
30.58
30.30
29.60
28.36
26.60
24.53
22.38
20.37
18.58
16.99
15.54
14.16
12.84
11.55
10.22
8.74
7.02
5.06
2.98
0.95
-0.86
-2.46
-3.98
-5.70
-7.83
-10.48
-13.58
-16.93
-20.31
-23.59
-26.76
-29.86
-32.99
-36.16
-39.34
-42.35
-44.87
-46.41
-46.38
-44.27
-39.82
-33.27
-25.30
-16.88
-8.93
-2.10
3.45
7.86
11.42
14.25
16.38
17.75
18.40
18.56
18.54
18.67
19.09
19.73
20.44
21.04
21.46
21.78
22.08
22.46
22.89
23.22
23.27
22.92
22.16
21.09
19.92
18.82
17.84
16.92
15.84
14.43
12.61
10.44
8.14
5.92
3.98
2.35
0.92
-0.48
-1.99
-3.72
-5.65
-7.72
-9.83
-11.91
-13.93
-15.94
-17.97
-20.07
-22.23
-24.48
-26.80
-29.22
-31.66
-33.95
-35.71
-36.47
-35.70
-33.09
-28.66
-22.84
-16.33
-9.90
-4.12
0.74
4.71
7.94
10.62
12.80
14.44
15.50
15.99
16.07
15.96
15.93
16.15
16.68
17.45
18.28
19.03
19.56
19.89
20.01
19.94
19.67
19.13
18.27
17.08
15.68
14.19
12.74
11.42
10.22
9.10
8.00
6.86
5.60
4.19
2.62
0.92
-0.78
-2.36
-3.74
-4.93
-6.08
-7.33
-8.80
-10.50
-12.34
-14.22
-16.12
-18.02
-19.97
-21.93
-23.79
-25.44
-26.82
-27.93
-28.79
-29.31
-29.25
-28.30
-26.21
-22.93
-18.68
-13.89
-9.03
-4.46
-0.40
3.03
5.81
7.88
9.26
10.00
10.27
10.31
10.37
10.63
11.17
11.94
12.82
13.67
14.37
14.91
15.30
15.60
15.85
16.01
15.98
15.66
14.99
14.02
12.89
11.75
10.69
9.70
8.69
7.57
6.27
4.81
3.25
1.66
0.08
-1.49
-3.09
-4.72
-6.37
-7.99
-9.52
-10.97
-12.34
-13.69
-15.06
-16.49
-18.00
-19.55
-21.01
-22.18
-22.84
-22.80
-21.98
-20.44
-18.35
-15.91
-13.26
-10.50
-7.67
-4.87
-2.21
0.16
2.13
3.73
5.07
6.27
7.39
8.46
9.43
10.30
11.13
11.99
12.92
13.88
14.72
15.28
15.48
15.32
14.87
14.28
13.61
12.93
12.19
11.36
10.37
9.16
7.71
6.06
4.29
2.53
0.89
-0.67
-2.22
-3.90
-5.78
-7.83
-9.93
-11.93
-13.74
-15.34
-16.82
-18.25
-19.68
-21.13
-22.52
-23.75
-24.70
-25.21
-25.06
-24.08
-22.08
-19.08
-15.24
-10.90
-6.50
-2.46
0.98
3.72
5.83
7.45
8.74
9.82
10.76
11.57
12.28
12.86
13.28
13.52
13.57
13.45
13.24
12.98
12.67
12.24
11.59
10.62
9.32
7.72
5.90
3.94
1.91
-0.17
-2.32
-4.56
-6.92
-9.38
-11.89
-14.32
-16.57
-18.56
-20.35
-22.08
-23.91
-25.88
-27.81
-29.29
-29.74
-28.71
-25.98
-21.69
-16.34
-10.55
-4.98
-0.09
3.90
6.98
9.29
11.00
12.29
13.30
14.10
14.76
15.32
15.82
16.27
16.70
17.08
17.39
17.53
17.37
16.84
15.89
14.60
13.11
11.61
10.22
8.98
7.80
6.51
4.94
2.99
0.66
-1.95
-4.65
-7.28
-9.74
-12.05
-14.34
-16.79
-19.52
-22.52
-25.66
-28.70
-31.37
-33.35
-34.31
-33.85
-31.64
-27.57
-21.85
-15.07
-8.03
-1.48
4.09
8.57
12.10
14.95
17.26
19.03
20.14
20.57
20.39
19.88
19.38
19.17
19.35
19.85
20.43
20.81
20.85
20.52
19.96
19.33
18.69
17.95
16.91
15.38
13.36
11.06
8.81
6.92
5.50
4.35
3.07
1.28
-1.22
-4.30
-7.57
-10.57
-12.97
-14.72
-16.03
-17.26
-18.74
-20.69
-23.17
-26.12
-29.36
-32.59
-35.28
-36.79
-36.43
-33.77
-28.84
-22.16
-14.66
-7.28
-0.75
4.61
8.82
12.08
14.58
16.45
17.77
18.60
19.10
19.44
19.81
20.28
20.81
21.32
21.66
21.75
21.59
21.24
20.82
20.43
20.09
19.79
19.45
19.00
18.41
17.69
16.88
15.95
14.88
13.62
12.12
10.41
8.57
6.72
4.96
3.31
1.71
0.02
-1.89
-4.08
-6.49
-9.02
-11.55
-14.05
-16.54
-19.12
-21.85
-24.70
-27.63
-30.62
-33.60
-36.46
-38.86
-40.23
-39.89
-37.23
-32.15
-25.06
-16.92
-8.86
-1.79
3.84
8.07
11.22
13.63
15.46
16.70
17.29
17.32
17.06
16.88
17.06
17.69
18.58
19.38
19.80
19.68
19.13
18.38
17.66
17.08
16.61
16.12
15.48
14.62
13.59
12.49
11.45
10.56
9.84
9.17
8.34
7.10
5.35
3.12
0.66
-1.71
-3.74
-5.42
-6.95
-8.69
-10.93
-13.76
-17.01
-20.36
-23.45
-25.95
-27.62
-28.23
-27.58
-25.52
-22.10
-17.62
-12.57
-7.54
-2.99
0.84
3.97
6.56
8.75
10.58
11.98
12.86
13.23
13.23
13.05
12.88
12.83
12.92
13.08
13.27
13.46
13.61
13.67
13.55
13.10
12.22
10.88
9.16
7.22
5.21
3.20
1.13
-1.14
-3.79
-6.86
-10.27
-13.75
-17.07
-20.11
-22.93
-25.78
-28.89
-32.40
-36.32
-40.50
-44.72
-48.68
-51.91
-53.75
-53.52
-50.72
-45.34
-37.98
-29.74
-21.89
-15.40
-10.69
-7.64
-5.77
-4.47
-3.30
-1.96
-0.30
1.75
4.23
7.13
10.38
13.80
17.13
20.11
22.52
24.24
25.33
25.96
26.40
26.82
27.23
27.48
27.30
26.46
24.95
22.98
20.87
18.92
17.22
15.68
14.05
12.07
9.57
6.54
3.10
-0.53
-4.12
-7.50
-10.62
-13.59
-16.66
-20.11
-24.11
-28.74
-33.84
-39.11
-44.10
-48.27
-51.06
-52.10
-51.32
-49.07
-45.95
-42.60
-39.36
-36.15
-32.59
-28.24
-22.91
-16.76
-10.20
-3.67
2.55
8.38
13.82
18.84
23.31
27.10
30.20
32.72
34.90
36.94
38.92
40.75
42.24
43.20
43.56
43.38
42.81
42.02
41.13
40.29
39.54
38.91
38.31
37.62
36.65
35.23
33.32
31.02
28.51
25.98
23.54
21.22
18.97
16.75
14.53
12.26
9.82
7.10
4.02
0.63
-2.90
-6.37
-9.75
-13.17
-16.89
-21.16
-26.06
-31.47
-37.17
-42.84
-48.16
-52.73
-56.05
-57.58
-56.96
-54.23
-49.87
-44.61
-39.12
-33.75
-28.47
-23.06
-17.39
-11.54
-5.79
-0.40
4.54
9.14
13.54
17.83
21.90
25.52
28.53
30.86
32.66
34.14
35.49
36.78
37.96
38.93
39.54
39.71
39.40
38.62
37.45
36.00
34.39
32.71
31.03
29.29
27.39
25.20
22.68
19.87
16.91
13.96
11.12
8.40
5.74
3.03
0.23
-2.68
-5.69
-8.77
-11.94
-15.25
-18.72
-22.38
-26.26
-30.43
-34.90
-39.56
-44.03
-47.72
-49.89
-50.02
-47.99
-44.14
-39.14
-33.66
-28.12
-22.61
-16.98
-11.13
-5.12
0.74
6.08
10.63
14.35
17.37
19.91
22.12
24.07
25.75
27.16
28.32
29.28
30.10
30.78
31.23
31.38
31.15
30.58
29.77
28.87
27.97
27.11
26.31
25.48
24.57
23.50
22.23
20.70
18.90
16.87
14.65
12.38
10.09
7.85
5.64
3.40
1.02
-1.57
-4.40
-7.47
-10.70
-14.02
-17.36
-20.72
-24.12
-27.66
-31.42
-35.41
-39.49
-43.27
-46.20
-47.68
-47.25
-44.82
-40.67
-35.39
-29.61
-23.86
-18.38
-13.21
-8.28
-3.56
0.92
5.05
8.77
12.07
15.03
17.76
20.32
22.75
25.02
27.07
28.85
30.33
31.55
32.51
33.24
33.69
33.85
33.67
33.19
32.47
31.58
30.56
29.47
28.32
27.09
25.76
24.28
22.61
20.78
18.81
16.80
14.87
13.05
11.28
9.44
7.32
4.81
1.91
-1.20
-4.27
-7.11
-9.68
-12.14
-14.71
-17.63
-20.97
-24.68
-28.69
-32.84
-36.98
-40.78
-43.80
-45.44
-45.22
-42.95
-38.85
-33.47
-27.46
-21.32
-15.36
-9.71
-4.40
0.49
4.87
8.69
12.03
15.00
17.73
20.24
22.45
24.28
25.68
26.69
27.44
28.06
28.64
29.22
29.79
30.32
30.73
30.97
30.98
30.75
30.29
29.65
28.87
27.95
26.86
25.53
23.92
22.06
20.02
17.93
15.87
13.89
11.95
9.97
7.84
5.49
2.94
0.29
-2.34
-4.84
-7.18
-9.43
-11.74
-14.22
-16.93
-19.85
-22.90
-25.92
-28.67
-30.84
-32.06
-32.02
-30.61
-27.94
-24.33
-20.22
-15.97
-11.88
-8.13
-4.87
-2.20
-0.16
1.31
2.39
3.27
4.11
4.97
5.84
6.68
7.47
8.23
8.95
9.58
10.06
10.37
10.48
10.45
10.32
10.09
9.75
9.27
8.60
7.73
6.65
5.35
3.86
2.26
0.68
-0.80
-2.15
-3.51
-5.08
-7.05
-9.48
-12.25
-15.12
-17.84
-20.25
-22.40
-24.46
-26.66
-29.18
-32.09
-35.39
-39.00
-42.73
-46.21
-48.94
-50.31
-49.86
-47.46
-43.37
-38.19
-32.54
-26.90
-21.44
-16.12
-10.87
-5.73
-0.88
3.46
7.14
10.23
12.92
15.40
17.78
20.03
22.09
23.84
25.24
26.32
27.12
27.67
27.95
27.93
27.57
26.89
25.95
24.92
23.89
22.94
22.04
21.09
20.00
18.65
17.02
15.08
12.91
10.56
8.16
5.81
3.63
1.69
-0.04
-1.69
-3.42
-5.35
-7.54
-9.93
-12.41
-14.90
-17.42
-20.05
-22.87
-25.91
-29.11
-32.45
-35.92
-39.53
-43.17
-46.40
-48.52
-48.80
-46.84
-42.78
-37.34
-31.43
-25.83
-20.81
-16.20
-11.65
-6.91
-2.02
2.73
7.04
10.77
13.94
16.72
19.23
21.53
23.56
25.22
26.43
27.21
27.65
27.89
28.10
28.39
28.74
29.03
29.08
28.72
27.92
26.73
25.36
23.95
22.63
21.39
20.19
18.91
17.49
15.90
14.14
12.21
10.11
7.89
5.65
3.54
1.68
0.09
-1.36
-2.90
-4.78
-7.13
-9.91
-12.95
-16.03
-19.01
-21.82
-24.51
-27.08
-29.58
-32.02
-34.43
-36.76
-38.82
-40.25
-40.56
-39.38
-36.61
-32.53
-27.68
-22.64
-17.85
-13.48
-9.53
-5.88
-2.48
0.65
3.47
5.98
8.21
10.21
12.00
13.57
14.91
16.00
16.86
17.54
18.10
18.57
18.99
19.36
19.69
19.96
20.12
20.11
19.83
19.20
18.17
16.79
15.19
13.59
12.18
11.06
10.23
9.59
8.99
8.31
7.45
6.38
5.08
3.53
1.71
-0.32
-2.48
-4.64
-6.65
-8.47
-10.11
-11.68
-13.30
-15.11
-17.13
-19.22
-21.04
-22.11
-21.94
-20.28
-17.20
-13.22
-9.05
-5.41
-2.75
-1.12
-0.29
0.10
0.31
0.48
0.62
0.73
0.91
1.27
1.89
2.69
3.49
4.08
4.33
4.25
3.98
3.70
3.50
3.35
3.15
2.75
2.06
1.08
-0.12
-1.40
-2.66
-3.83
-4.95
-6.12
-7.46
-9.04
-10.83
-12.76
-14.75
-16.84
-19.09
-21.65
-24.59
-27.86
-31.40
-35.10
-38.94
-42.85
-46.67
-49.93
-52.02
-52.36
-50.69
-47.29
-42.82
-38.13
-33.79
-29.92
-26.23
-22.20
-17.48
-12.03
-6.16
-0.31
5.15
10.07
14.46
18.41
21.96
25.03
27.47
29.15
30.05
30.31
30.20
30.02
29.92
29.90
29.72
29.12
27.93
26.14
24.02
21.87
19.99
18.43
17.02
15.47
13.48
10.95
7.95
4.68
1.33
-2.00
-5.33
-8.81
-12.58
-16.75
-21.32
-26.23
-31.38
-36.66
-41.91
-46.84
-51.01
-53.93
-55.14
-54.38
-51.71
-47.41
-41.95
-35.76
-29.17
-22.42
-15.67
-9.06
-2.72
3.26
8.87
14.13
19.08
23.67
27.84
31.50
34.60
37.14
39.19
40.83
42.12
43.10
43.79
44.15
44.16
43.78
43.01
41.87
40.42
38.71
36.84
34.84
32.77
30.64
28.41
26.01
23.36
20.38
17.06
13.45
9.67
5.84
2.05
-1.68
-5.40
-9.17
-12.98
-16.76
-20.37
-23.75
-26.92
-30.04
-33.40
-37.20
-41.43
-45.69
-49.30
-51.46
-51.55
-49.40
-45.27
-39.78
-33.56
-27.05
-20.48
-13.88
-7.27
-0.82
5.26
10.72
15.44
19.43
22.83
25.73
28.18
30.16
31.58
32.40
32.69
32.60
32.34
32.03
31.69
31.22
30.46
29.29
27.67
25.68
23.47
21.20
19.05
17.06
15.18
13.28
11.15
8.66
5.79
2.74
-0.17
-2.61
-4.44
-5.78
-6.95
-8.37
-10.34
-13.00
-16.27
-19.97
-23.78
-27.35
-30.21
-31.85
-31.85
-30.02
-26.50
-21.75
-16.36
-10.90
-5.71
-0.87
3.66
7.96
11.98
15.56
18.49
20.65
22.06
22.89
23.32
23.52
23.50
23.22
22.60
21.68
20.54
19.27
17.93
16.47
14.78
12.83
10.64
8.29
5.84
3.22
0.28
-3.11
-6.93
-11.04
-15.21
-19.32
-23.41
-27.63
-32.18
-37.14
-42.43
-47.87
-53.19
-58.07
-62.12
-64.87
-65.82
-64.63
-61.22
-55.79
-48.79
-40.72
-31.99
-22.87
-13.56
-4.22
4.88
13.43
21.12
27.72
33.17
37.51
40.90
43.56
45.59
47.05
47.90
48.15
47.87
47.25
46.56
45.99
45.63
45.34
44.88
43.96
42.44
40.32
37.74
34.92
32.01
29.11
26.19
23.17
19.92
16.38
12.53
8.38
3.99
-0.60
-5.34
-10.19
-15.09
-19.96
-24.72
-29.30
-33.74
-38.20
-42.94
-48.15
-53.83
-59.59
-64.70
-68.24
-69.37
-67.65
-63.15
-56.34
-47.91
-38.47
-28.38
-17.82
-6.98
3.85
14.19
23.48
31.29
37.41
41.98
45.31
47.75
49.58
50.91
51.69
51.92
51.65
51.12
50.60
50.27
50.15
50.03
49.62
48.68
47.20
45.32
43.30
41.36
39.51
37.66
35.63
33.33
30.78
28.16
25.60
23.18
20.82
18.36
15.63
12.59
9.32
6.02
2.88
-0.00
-2.64
-5.14
-7.65
-10.24
-13.00
-15.96
-19.13
-22.50
-25.97
-29.40
-32.67
-35.81
-39.03
-42.61
-46.74
-51.29
-55.75
-59.34
-61.24
-60.90
-58.22
-53.54
-47.44
-40.55
-33.37
-26.18
-19.07
-12.03
-5.10
1.66
8.03
13.81
18.81
22.93
26.25
28.94
31.16
33.05
34.59
35.74
36.44
36.73
36.70
36.49
36.19
35.83
35.40
34.85
34.09
33.08
31.80
30.28
28.62
26.97
25.44
24.05
22.67
21.09
19.14
16.80
14.28
11.88
9.80
8.07
6.51
4.85
2.91
0.65
-1.81
-4.28
-6.62
-8.74
-10.68
-12.54
-14.48
-16.67
-19.22
-22.11
-25.10
-27.80
-29.65
-30.22
-29.24
-26.74
-23.02
-18.50
-13.69
-8.98
-4.68
-0.93
2.16
4.59
6.37
7.54
8.19
8.41
8.39
8.25
8.09
7.96
7.83
7.69
7.49
7.26
7.02
6.83
6.75
6.75
6.73
6.54
6.00
5.06
3.75
2.22
0.67
-0.74
-1.99
-3.14
-4.32
-5.68
-7.28
-9.13
-11.20
-13.47
-15.93
-18.57
-21.37
-24.28
-27.19
-30.05
-32.88
-35.78
-38.85
-42.06
-45.19
-47.78
-49.27
-49.17
-47.27
-43.71
-38.91
-33.45
-27.87
-22.56
-17.70
-13.25
-9.07
-4.98
-0.86
3.28
7.33
11.08
14.39
17.16
19.41
21.20
22.63
23.77
24.69
25.46
26.17
26.82
27.37
27.69
27.64
27.15
26.28
25.17
23.94
22.64
21.25
19.70
17.98
16.15
14.26
12.38
10.46
8.39
6.11
3.62
0.99
-1.71
-4.43
-7.23
-10.16
-13.29
-16.57
-19.92
-23.24
-26.45
-29.55
-32.61
-35.65
-38.60
-41.18
-42.95
-43.39
-42.14
-39.17
-34.79
-29.59
-24.20
-19.06
-14.33
-9.99
-5.95
-2.15
1.41
4.76
7.96
11.11
14.25
17.29
20.08
22.40
24.12
25.20
25.79
26.03
26.13
26.22
26.39
26.64
26.85
26.88
26.56
25.84
24.77
23.49
22.20
20.99
19.84
18.62
17.19
15.44
13.42
11.22
8.99
6.89
4.96
3.19
1.50
-0.26
-2.22
-4.46
-6.95
-9.58
-12.19
-14.70
-17.13
-19.58
-22.21
-25.14
-28.42
-32.01
-35.68
-39.12
-41.88
-43.51
-43.66
-42.20
-39.23
-35.05
-30.10
-24.81
-19.55
-14.60
-10.14
-6.23
-2.85
0.10
2.78
5.33
7.87
10.39
12.86
15.17
17.20
18.87
20.10
20.95
21.51
21.93
22.32
22.72
23.08
23.28
23.21
22.82
22.14
21.29
20.40
19.56
18.82
18.16
17.45
16.60
15.54
14.25
12.75
11.13
9.41
7.60
5.62
3.40
0.88
-1.87
-4.77
-7.70
-10.60
-13.50
-16.48
-19.67
-23.08
-26.70
-30.43
-34.20
-37.87
-41.23
-43.93
-45.53
-45.63
-44.05
-40.92
-36.66
-31.79
-26.75
-21.80
-17.01
-12.35
-7.90
-3.76
-0.08
3.11
5.94
8.62
11.32
14.06
16.74
19.17
21.19
22.77
24.04
25.15
26.28
27.42
28.47
29.20
29.42
29.06
28.20
27.05
25.81
24.66
23.58
22.49
21.18
19.55
17.58
15.39
13.18
11.12
9.31
7.74
6.34
4.99
3.60
2.15
0.62
-0.97
-2.67
-4.53
-6.57
-8.77
-11.05
-13.35
-15.66
-18.10
-20.78
-23.67
-26.46
-28.62
-29.54
-28.80
-26.38
-22.69
-18.35
-13.98
-9.94
-6.28
-2.92
0.24
3.13
5.56
7.37
8.48
9.08
9.47
10.01
10.89
12.11
13.45
14.57
15.21
15.31
15.02
14.62
14.34
14.20
14.05
13.62
12.72
11.36
9.69
7.99
6.46
5.11
3.82
2.40
0.72
-1.23
-3.35
-5.50
-7.61
-9.68
-11.81
-14.09
-16.48
-18.93
-21.38
-23.88
-26.51
-29.32
-32.15
-34.56
-35.99
-35.93
-34.21
-31.06
-26.97
-22.51
-18.10
-13.93
-10.04
-6.40
-3.04
0.01
2.68
5.01
7.01
8.77
10.33
11.69
12.80
13.62
14.12
14.33
14.33
14.19
13.95
13.61
13.11
12.36
11.31
9.98
8.42
6.72
4.93
3.05
1.07
-1.06
-3.35
-5.85
-8.58
-11.65
-15.06
-18.78
-22.69
-26.65
-30.59
-34.57
-38.68
-42.93
-47.06
-50.55
-52.71
-52.97
-51.06
-47.17
-41.81
-35.62
-29.15
-22.75
-16.55
-10.56
-4.80
0.70
5.92
10.87
15.53
19.92
23.92
27.38
30.19
32.28
33.69
34.57
35.08
35.38
35.55
35.64
35.66
35.53
35.15
34.39
33.11
31.25
28.86
26.11
23.21
20.32
17.46
14.57
11.53
8.25
4.71
0.97
-2.87
-6.72
-10.55
-14.41
-18.35
-22.50
-26.93
-31.68
-36.72
-41.80
-46.51
-50.26
-52.42
-52.50
-50.35
-46.21
-40.62
-34.22
-27.47
-20.62
-13.68
-6.64
0.41
7.22
13.49
19.00
23.71
27.74
31.25
34.30
36.87
38.82
40.09
40.73
40.95
41.03
41.15
41.37
41.58
41.58
41.19
40.27
38.77
36.74
34.29
31.55
28.69
25.85
23.13
20.55
18.13
15.80
13.59
11.51
9.60
7.85
6.13
4.25
2.00
-0.75
-3.97
-7.51
-11.15
-14.69
-18.06
-21.21
-24.28
-27.43
-30.88
-34.75
-38.94
-43.01
-46.29
-48.04
-47.71
-45.22
-40.96
-35.56
-29.68
-23.76
-17.94
-12.26
-6.72
-1.42
3.50
7.96
11.99
15.72
19.28
22.69
25.83
28.55
30.70
32.27
33.33
33.99
34.32
34.31
33.92
33.08
31.83
30.23
28.41
26.48
24.48
22.42
20.27
18.07
15.86
13.75
11.81
10.05
8.38
6.70
4.88
2.85
0.59
-1.83
-4.34
-6.88
-9.49
-12.25
-15.34
-18.82
-22.57
-26.19
-29.07
-30.56
-30.23
-28.04
-24.40
-19.99
-15.45
-11.26
-7.53
-4.17
-1.01
2.00
4.77
7.15
8.99
10.26
11.09
11.68
12.22
12.89
13.68
14.49
15.16
15.55
15.55
15.18
14.46
13.40
12.00
10.27
8.27
6.13
3.99
1.91
-0.13
-2.28
-4.75
-7.64
-10.95
-14.57
-18.37
-22.26
-26.21
-30.28
-34.53
-38.96
-43.44
-47.69
-51.22
-53.49
-54.06
-52.68
-49.47
-44.79
-39.12
-32.86
-26.24
-19.30
-12.12
-4.88
2.14
8.56
14.14
18.84
22.75
26.04
28.82
31.09
32.79
33.93
34.59
35.01
35.39
35.91
36.53
37.12
37.48
37.39
36.78
35.72
34.36
32.85
31.28
29.65
27.88
25.88
23.59
21.06
18.39
15.67
12.96
10.22
7.35
4.23
0.78
-2.95
-6.88
-10.86
-14.82
-18.73
-22.62
-26.54
-30.50
-34.53
-38.65
-42.91
-47.27
-51.56
-55.32
-57.93
-58.81
-57.57
-54.26
-49.31
-43.31
-36.78
-30.01
-23.10
-16.03
-8.88
-1.85
4.77
10.74
15.95
20.44
24.29
27.57
30.28
32.40
33.92
34.92
35.57
36.02
36.42
36.82
37.23
37.57
37.72
37.54
36.91
35.77
34.13
32.12
29.93
27.73
25.63
23.62
21.62
19.51
17.26
14.93
12.64
10.48
8.45
6.41
4.15
1.48
-1.65
-5.15
-8.83
-12.51
-16.11
-19.61
-23.04
-26.41
-29.70
-32.94
-36.24
-39.84
-43.85
-48.10
-52.06
-54.91
-55.89
-54.58
-51.11
-46.00
-39.96
-33.60
-27.21
-20.83
-14.49
-8.22
-2.19
3.41
8.43
12.84
16.63
19.83
22.42
24.41
25.89
26.96
27.76
28.38
28.87
29.23
29.49
29.69
29.88
30.07
30.15
29.99
29.48
28.59
27.40
25.99
