1536243692.00
64.000000
-0.00
-0.00
-0.00
-0.00
-0.00
-0.00
-0.00
-0.00
-0.00
-0.00
0.00
0.01
0.01
-0.00
-0.03
-0.05
-0.05
0.00
0.13
0.36
0.66
1.01
1.37
1.72
2.06
2.40
2.79
3.24
3.80
4.42
5.06
5.66
6.20
6.68
7.15
7.68
8.31
9.14
10.09
11.04
11.88
12.56
13.14
13.76
14.65
15.96
17.91
20.32
22.90
25.38
27.58
29.57
31.68
34.32
37.81
42.54
48.15
54.10
59.83
64.97
69.58
74.14
79.34
85.71
93.76
103.00
112.62
121.73
129.77
136.75
143.30
150.75
157.77
166.64
177.95
191.79
206.97
220.57
228.25
225.36
208.53
176.87
132.76
80.05
23.07
-34.94
-92.44
-149.16
-205.23
-260.37
-313.74
-363.87
-409.83
-450.91
-486.50
-515.74
-537.23
-549.22
-549.96
-538.37
-514.21
-478.67
-433.88
-382.45
-327.02
-269.84
-212.63
-156.66
-102.95
-52.37
-5.90
35.58
71.43
101.35
125.50
144.38
158.69
169.15
176.37
180.75
182.57
182.07
179.51
175.23
169.65
163.18
156.15
148.81
141.30
133.69
126.02
118.33
110.69
103.16
95.80
88.68
81.83
75.25
68.95
62.95
57.25
51.86
46.78
42.03
37.59
33.45
29.61
26.07
22.81
19.83
17.11
14.67
12.48
10.54
8.83
7.35
6.07
4.97
4.05
3.27
2.62
2.09
1.65
1.30
1.02
0.80
0.62
0.50
0.40
0.34
0.30
0.28
0.27
0.28
0.30
0.33
0.36
0.40
0.44
0.48
0.52
0.57
0.62
0.67
0.73
0.79
0.85
0.92
1.00
1.09
1.19
1.30
1.42
1.56
1.72
1.89
2.08
2.29
2.53
2.79
3.07
3.38
3.73
4.11
4.52
4.96
5.45
5.97
6.54
7.14
7.79
8.48
9.22
10.00
10.82
11.69
12.60
13.56
14.57
15.65
16.80
17.99
19.25
20.52
21.77
22.92
23.88
24.53
24.76
24.43
23.43
21.68
19.15
15.86
11.86
7.37
2.58
-2.24
-6.85
-11.05
-14.65
-17.56
-19.73
-21.17
-21.91
-22.03
-21.62
-20.81
-19.73
-18.54
-17.37
-16.31
-15.40
-14.56
-13.77
-12.90
-11.88
-10.72
-9.46
-8.19
-7.01
-5.92
-4.80
-3.63
-2.28
-0.74
0.89
2.33
3.26
3.44
2.88
1.84
0.49
-0.77
-1.65
-2.13
-2.43
-2.93
-3.92
-5.44
-7.18
-9.09
-10.83
-12.16
-13.11
-13.96
-15.19
-17.39
-21.26
-27.32
-36.16
-47.09
-58.16
-66.62
-69.82
-66.30
-56.60
-43.27
-26.76
-10.32
3.01
11.26
13.67
10.32
1.72
-11.19
-26.91
-43.21
-57.96
-68.95
-74.76
-75.29
-71.57
-65.23
-57.66
-49.61
-41.17
-32.50
-23.65
-14.89
-6.87
-0.44
3.61
4.81
3.13
-0.93
-6.60
-12.51
-16.96
-18.32
-15.50
-8.36
2.17
14.32
26.04
35.55
41.99
45.53
47.11
47.93
48.99
50.90
53.83
57.56
61.68
65.69
69.09
71.42
72.35
71.76
69.73
66.55
62.67
58.60
54.82
51.58
48.82
46.08
42.59
37.54
30.38
21.05
10.03
-1.73
-13.17
-23.33
-31.64
-37.85
-42.01
-44.47
-45.78
-46.70
-48.18
-51.12
-56.04
-62.79
-70.31
-76.87
-80.54
-79.82
-74.22
-64.31
-51.55
-37.66
-24.16
-11.98
-1.45
7.47
14.99
21.30
26.53
30.72
33.89
35.97
36.82
36.38
34.75
32.27
29.49
26.98
25.17
24.23
24.11
24.62
25.57
26.70
27.65
27.96
27.12
24.75
20.83
15.73
10.15
4.78
0.09
-3.91
-7.63
-11.75
-16.94
-23.64
-31.77
-40.72
-49.33
-56.17
-59.79
-59.12
-53.78
-44.23
-31.74
-18.03
-4.85
6.54
15.66
22.71
28.26
32.84
36.66
39.65
41.62
42.61
42.94
43.19
43.89
45.29
47.31
49.55
51.59
53.09
53.91
54.04
53.47
52.15
49.95
46.67
42.18
36.45
29.64
22.08
14.20
6.45
-0.86
-7.64
-14.01
-20.29
-26.88
-34.14
-42.30
-51.41
-61.21
-71.07
-79.94
-86.55
-89.52
-87.86
-81.18
-69.96
-55.41
-39.21
-23.02
-8.13
4.72
15.38
23.97
30.74
35.88
39.48
41.63
42.49
42.33
41.49
40.37
39.33
38.55
38.07
37.76
37.36
36.68
35.62
34.27
32.74
31.01
28.86
25.91
21.83
16.60
10.60
4.40
-1.38
-6.48
-10.98
-15.26
-19.72
-24.71
-30.41
-36.93
-44.28
-52.29
-60.42
-67.70
-72.78
-74.33
-71.43
-63.95
-52.61
-38.79
-24.08
-9.91
2.73
13.29
21.68
28.00
32.43
35.17
36.43
36.44
35.49
33.94
32.18
30.54
29.21
28.20
27.39
26.62
25.78
24.88
24.00
23.13
22.10
20.58
18.19
14.70
10.12
4.77
-0.87
-6.30
-11.20
-15.47
-19.28
-22.97
-27.07
-32.09
-38.32
-45.60
-53.11
-59.45
-62.90
-62.09
-56.40
-46.25
-32.90
-18.06
-3.32
10.21
21.96
31.76
39.53
45.21
48.68
49.97
49.36
47.41
44.87
42.42
40.50
39.24
38.43
37.73
36.78
35.37
33.46
31.21
28.80
26.35
23.78
20.80
17.01
12.11
6.10
-0.61
-7.30
-13.29
-18.16
-22.03
-25.44
-29.14
-33.80
-39.73
-46.86
-54.69
-62.34
-68.63
-72.21
-71.88
-66.90
-57.30
-43.98
-28.51
-12.66
2.03
14.63
24.81
32.71
38.65
42.94
45.80
47.40
47.94
47.68
46.88
45.76
44.46
43.02
41.49
39.95
38.54
37.37
36.49
35.77
34.94
33.70
31.84
29.29
26.23
22.89
19.46
15.96
12.24
8.07
3.33
-1.97
-7.61
-13.29
-18.79
-23.99
-28.91
-33.67
-38.53
-43.84
-49.94
-57.04
-64.91
-72.64
-78.71
-81.29
-78.82
-70.67
-57.40
-40.68
-22.73
-5.64
9.16
21.10
30.34
37.38
42.70
46.60
49.17
50.44
50.49
49.56
48.00
46.20
44.47
42.98
41.80
40.88
40.18
39.66
39.23
38.74
37.95
36.58
34.45
31.53
27.94
23.88
19.48
14.78
9.76
4.37
-1.32
-7.08
-12.63
-17.68
-22.14
-26.12
-29.99
-34.24
-39.41
-45.85
-53.57
-62.03
-70.13
-76.29
-78.84
-76.45
-68.63
-55.91
-39.75
-22.12
-4.95
10.29
22.85
32.55
39.54
44.07
46.34
46.56
45.08
42.43
39.26
36.26
33.88
32.27
31.30
30.64
29.92
28.92
27.58
26.03
24.41
22.81
21.12
19.07
16.29
12.52
7.71
2.13
-3.75
-9.42
-14.50
-18.91
-22.83
-26.66
-30.88
-35.92
-42.07
-49.32
-57.25
-64.97
-71.16
-74.32
-73.13
-66.90
-55.85
-41.12
-24.44
-7.75
7.40
20.08
29.99
37.31
42.32
45.29
46.39
45.85
44.07
41.55
38.87
36.50
34.70
33.49
32.75
32.27
31.85
31.31
30.44
29.14
27.34
25.09
22.48
19.52
16.14
12.16
7.44
1.97
-4.03
-10.18
-16.05
-21.38
-26.13
-30.50
-34.87
-39.64
-45.19
-51.73
-59.23
-67.26
-74.87
-80.63
-82.96
-80.53
-72.77
-60.11
-43.94
-26.15
-8.66
7.08
20.28
30.71
38.52
43.98
47.39
49.07
49.32
48.54
47.11
45.39
43.65
42.01
40.42
38.75
36.85
34.69
32.36
30.04
27.91
26.07
24.36
22.46
19.93
16.42
11.75
6.00
-0.47
-7.11
-13.38
-18.95
-23.79
-28.25
-32.89
-38.32
-44.95
-52.83
-61.53
-70.12
-77.29
-81.49
-81.34
-75.99
-65.43
-50.65
-33.35
-15.58
0.87
14.82
25.81
33.90
39.44
42.73
44.03
43.59
41.73
38.92
35.62
32.25
29.04
26.05
23.23
20.56
18.11
16.04
14.46
13.35
12.47
11.43
9.78
7.25
3.77
-0.39
-4.84
-9.23
-13.37
-17.37
-21.52
-26.16
-31.63
-38.09
-45.50
-53.42
-61.03
-67.04
-69.97
-68.48
-61.90
-50.52
-35.57
-18.95
-2.55
12.15
24.41
34.06
41.24
46.08
48.65
48.97
47.28
44.10
40.18
36.33
33.12
30.79
29.20
28.00
26.86
25.60
24.22
22.82
21.48
20.10
18.45
16.19
13.02
8.78
3.54
-2.45
-8.80
-15.11
-21.10
-26.69
-32.08
-37.71
-44.03
-51.35
-59.55
-68.03
-75.63
-80.90
-82.41
-79.10
-70.62
-57.49
-41.03
-23.05
-5.43
10.32
23.33
33.40
40.80
45.99
49.37
51.20
51.66
50.91
49.22
46.95
44.49
42.15
40.03
38.09
36.23
34.35
32.46
30.67
29.02
27.41
25.59
23.14
19.74
15.21
9.73
3.72
-2.26
-7.73
-12.47
-16.62
-20.63
-25.15
-30.85
-38.12
-46.91
-56.54
-65.61
-72.30
-74.74
-71.65
-62.75
-48.94
-32.08
-14.36
2.28
16.62
28.19
37.04
43.40
47.45
49.31
49.16
47.46
44.79
41.85
39.10
36.71
34.55
32.35
29.92
27.28
24.68
22.37
20.52
19.05
17.61
15.71
12.90
8.96
4.00
-1.59
-7.30
-12.67
-17.47
-21.80
-26.02
-30.66
-36.21
-42.87
-50.30
-57.50
-62.93
-64.84
-61.89
-53.56
-40.45
-24.11
-6.56
10.25
24.95
36.84
45.80
52.02
55.79
57.50
57.59
56.56
54.93
53.08
51.18
49.21
47.07
44.73
42.24
39.73
37.16
34.20
30.21
24.53
16.73
6.93
-4.20
-15.64
-26.33
-35.51
-42.94
-48.94
-54.24
-59.75
-66.22
-73.90
-82.38
-90.57
-96.97
-100.01
-98.57
-92.19
-81.20
-66.56
-49.73
-32.32
-15.93
-1.82
9.22
16.98
21.85
24.58
26.10
27.14
28.16
29.30
30.49
31.56
32.43
33.05
33.41
33.50
33.25
32.56
31.21
28.99
25.76
21.50
16.36
10.63
4.65
-1.34
-7.20
-12.97
-18.77
-24.77
-31.14
-38.06
-45.65
-53.77
-61.93
-69.13
-74.00
-75.09
-71.33
-62.49
-49.31
-33.37
-16.68
-1.10
12.07
22.37
30.09
35.91
40.56
44.57
48.18
51.47
54.48
57.30
59.99
62.48
64.50
65.75
65.93
64.98
63.04
60.32
56.93
52.76
47.57
41.11
33.31
24.36
14.71
4.94
-4.39
-12.87
-20.37
-27.03
-33.33
-39.89
-47.24
-55.49
-64.05
-71.62
-76.45
-76.86
-71.83
-61.36
-46.55
-29.27
-11.62
4.59
18.16
28.55
35.78
40.11
41.96
41.74
39.93
37.02
33.55
30.00
26.75
23.98
21.63
19.54
17.60
15.81
14.35
13.41
13.04
12.93
12.50
11.12
8.33
4.11
-1.15
-6.82
-12.31
-17.33
-21.92
-26.39
-31.21
-36.77
-43.27
-50.50
-57.73
-63.63
-66.50
-64.70
-57.19
-44.05
-26.53
-6.75
12.97
30.75
45.58
57.25
66.11
72.62
77.10
79.74
80.80
80.70
80.02
79.36
79.23
79.79
80.95
82.38
83.70
84.54
84.74
84.34
83.54
82.61
81.73
80.81
79.40
76.74
71.89
64.05
52.78
38.24
21.15
2.65
-15.86
-33.04
-47.79
-59.45
-68.06
-74.32
-79.56
-85.27
-92.40
-100.71
-108.53
-113.20
-111.98
-103.25
-87.24
-65.97
-42.58
-20.22
-1.17
13.49
23.77
30.31
33.94
35.43
35.41
34.40
32.77
30.74
28.41
25.69
22.42
18.41
13.64
8.26
2.58
-3.08
-8.72
-14.76
-21.99
-31.29
-43.21
-57.70
-74.14
-91.52
-108.63
-124.27
-137.31
-146.71
-151.78
-152.29
-148.73
-142.21
-134.23
-126.22
-119.22
-113.68
-109.37
-105.53
-101.07
-94.84
-85.92
-73.96
-59.32
-43.03
-26.51
-11.09
2.26
13.21
21.88
28.64
33.83
37.61
39.97
40.91
40.45
38.73
35.99
32.46
28.38
23.98
19.60
15.68
12.68
10.96
10.64
11.53
13.28
15.41
17.51
19.27
20.50
21.09
21.06
20.54
19.79
19.12
18.78
18.84
19.22
19.70
20.02
19.95
19.19
17.51
14.91
11.86
9.56
9.73
14.26
24.38
40.09
59.90
81.24
101.18
117.28
128.02
132.98
132.43
127.02
117.54
104.89
90.23
74.98
60.67
48.60
39.51
33.34
29.38
26.60
24.14
21.61
19.11
16.91
15.16
13.57
11.36
7.67
1.88
-5.99
-15.20
-24.56
-32.85
-39.28
-43.69
-46.60
-48.91
-51.61
-55.50
-61.00
-68.02
-75.94
-83.58
-89.32
-91.48
-88.72
-80.51
-67.42
-50.93
-33.08
-15.83
-0.64
11.73
21.07
27.48
31.16
32.31
31.26
28.46
24.51
20.03
15.56
11.46
7.93
5.10
3.05
1.83
1.37
1.46
1.67
1.52
0.56
-1.42
-4.38
-7.99
-11.80
-15.41
-18.59
-21.39
-24.03
-26.89
-30.38
-34.78
-40.03
-45.57
-50.26
-52.53
-50.86
-44.30
-32.95
-18.00
-1.50
14.36
27.79
37.86
44.39
47.71
48.35
46.83
43.63
39.31
34.54
29.97
26.10
23.13
20.88
18.99
17.07
14.90
12.53
10.06
7.58
5.01
2.16
-1.18
-5.09
-9.43
-13.96
-18.42
-22.74
-27.05
-31.71
-37.11
-43.53
-50.95
-58.86
-66.18
-71.38
-72.83
-69.30
-60.40
-46.80
-30.10
-12.33
4.59
19.29
31.12
40.02
46.28
50.25
52.21
52.42
51.15
48.81
45.85
42.74
39.74
36.90
34.05
30.98
27.63
24.20
21.05
18.50
16.58
14.91
12.83
9.68
5.10
-0.79
-7.46
-14.16
-20.28
-25.49
-29.88
-33.86
-38.05
-43.07
-49.38
-56.96
-65.16
-72.65
-77.62
-78.25
-73.37
-62.85
-47.82
-30.23
-12.25
4.31
18.44
29.84
38.68
45.20
49.57
51.92
52.46
51.60
49.92
48.04
46.33
44.89
43.53
41.95
39.98
37.67
35.28
33.14
31.48
30.22
29.00
27.32
24.72
20.94
16.02
10.26
4.09
-2.08
-7.95
-13.47
-18.83
-24.42
-30.77
-38.31
-47.21
-57.06
-66.78
-74.72
-78.99
-78.02
-71.11
-58.73
-42.45
-24.50
-7.10
8.03
19.98
28.59
34.21
37.33
38.45
37.98
36.31
33.89
31.17
28.54
26.20
24.12
22.15
20.13
18.07
16.10
14.45
13.16
12.07
10.75
8.67
5.45
1.05
-4.27
-10.08
-15.88
-21.35
-26.38
-31.14
-35.96
-41.29
-47.45
-54.38
-61.42
-67.24
-70.15
-68.64
-61.90
-50.22
-34.94
-18.04
-1.53
13.10
25.06
34.20
40.75
44.99
47.09
47.16
45.43
42.35
38.59
34.90
31.86
29.67
28.15
26.88
25.49
23.84
22.10
20.56
19.38
18.36
16.99
14.62
10.78
5.40
-1.18
-8.35
-15.46
-22.03
-27.88
-33.13
-38.15
-43.45
-49.57
-56.89
-65.30
-74.08
-81.82
-86.73
-87.13
-82.06
-71.64
-57.11
-40.42
-23.65
-8.47
4.19
14.04
21.19
25.82
28.03
27.90
25.58
21.43
16.02
10.01
3.96
-1.79
-7.24
-12.55
-18.00
-23.76
-29.83
-36.04
-42.21
-48.20
-54.10
-60.24
-67.02
-74.73
-83.31
-92.11
-100.06
-105.99
-109.01
-108.99
-106.62
-103.21
-100.17
-98.45
-98.19
-98.56
-97.96
-94.28
-85.36
-69.34
-45.15
-12.88
25.94
68.43
110.83
149.27
180.74
203.62
217.98
225.13
227.06
225.66
222.34
217.88
212.65
206.87
200.76
194.56
188.43
182.42
176.43
170.42
164.48
158.87
153.94
149.90
146.69
143.84
140.50
135.60
128.13
117.48
103.65
87.34
69.76
52.33
36.23
22.12
10.04
-0.40
-9.76
-18.47
-26.64
-33.94
-39.69
-42.95
-42.80
-38.71
-30.83
-19.98
-7.57
4.65
14.82
21.10
21.71
15.25
1.05
-20.34
-46.88
-75.39
-102.24
-124.36
-139.89
-148.40
-150.42
-146.92
-138.90
-127.40
-113.72
-99.55
-86.80
-77.12
-71.33
-69.29
-70.07
-72.51
-75.74
-79.36
-83.32
-87.63
-92.10
-96.38
-100.19
-103.54
-106.94
-111.13
-116.69
-123.53
-130.55
-135.87
-137.35
-133.35
-123.43
-108.55
-90.71
-72.21
-55.02
-40.30
-28.49
-19.60
-13.56
-10.28
-9.55
-10.94
-13.81
-17.43
-21.24
-24.87
-28.05
-30.35
-31.10
-29.49
-24.94
-17.49
-7.91
2.58
12.80
22.14
30.80
39.51
49.09
59.94
71.75
83.68
94.66
103.72
110.09
113.16
112.35
107.22
97.78
84.85
70.06
55.72
44.15
36.98
34.67
36.47
40.80
45.93
50.58
54.15
56.70
58.60
60.23
61.88
63.68
65.71
68.02
70.59
73.27
75.80
77.90
79.26
79.61
78.58
75.65
70.23
61.86
50.49
36.73
21.69
6.72
-6.99
-18.79
-28.63
-36.96
-44.41
-51.63
-59.02
-66.59
-73.99
-80.36
-84.56
-85.34
-81.81
-73.80
-62.02
-47.96
-33.47
-20.24
-9.36
-1.30
4.05
7.06
8.11
7.66
6.19
4.34
2.83
2.33
3.27
5.70
9.32
13.57
17.83
21.57
24.41
26.16
26.74
26.16
24.44
21.65
17.86
13.11
7.39
0.66
-7.13
-15.85
-25.05
-33.81
-40.81
-44.57
-43.86
-38.17
-27.91
-14.44
0.30
14.38
26.27
35.20
41.05
44.17
45.00
43.94
41.21
37.04
31.79
26.06
20.61
16.12
12.99
11.21
10.34
9.77
8.91
7.43
5.32
2.80
0.10
-2.67
-5.62
-9.03
-13.24
-18.49
-24.87
-32.32
-40.52
-48.89
-56.49
-62.03
-64.06
-61.34
-53.41
-40.74
-24.85
-7.87
8.16
21.73
32.27
39.91
45.20
48.61
50.41
50.64
49.32
46.66
43.04
39.01
35.08
31.58
28.59
26.00
23.53
20.87
17.81
14.31
10.51
6.69
3.13
-0.10
-3.16
-6.46
-10.44
-15.48
-21.75
-29.17
-37.46
-46.05
-54.08
-60.34
-63.37
-61.91
-55.29
-43.84
-28.94
-12.63
2.89
15.92
25.61
31.84
35.02
35.68
34.23
30.94
26.02
19.80
12.69
5.26
-1.92
-8.34
-13.67
-17.76
-20.61
-22.33
-23.06
-22.92
-22.01
-20.45
-18.53
-16.59
-15.08
-14.34
-14.59
-15.82
-17.88
-20.57
-23.82
-27.59
-31.84
-36.29
-40.19
-42.34
-41.30
-35.84
-25.48
-10.77
6.73
24.85
41.41
54.80
64.24
69.69
71.63
70.60
67.12
61.61
54.52
46.47
38.17
30.38
23.64
18.17
13.90
10.52
7.68
5.09
2.59
0.14
-2.30
-4.86
-7.70
-11.01
-14.91
-19.33
-24.06
-28.85
-33.58
-38.27
-43.02
-47.70
-51.76
-54.16
-53.62
-49.09
-40.23
-27.62
-12.71
2.68
16.84
28.59
37.40
43.34
46.73
48.00
47.47
45.37
41.92
37.45
32.42
27.40
22.89
19.17
16.22
13.73
11.30
8.61
5.56
2.21
-1.29
-4.81
-8.32
-11.88
-15.54
-19.38
-23.50
-28.04
-33.21
-39.12
-45.69
-52.37
-58.17
-61.73
-61.67
-57.01
-47.57
-34.18
-18.46
-2.47
11.93
23.51
31.89
37.37
40.57
42.03
42.02
40.63
37.89
34.03
29.47
24.77
20.40
16.66
13.59
11.09
9.02
7.22
5.51
3.65
1.37
-1.56
-5.25
-9.55
-14.13
-18.56
-22.51
-26.00
-29.35
-33.19
-38.18
-44.74
-52.73
-61.29
-68.86
-73.54
-73.57
-67.93
-56.79
-41.48
-24.17
-7.15
7.78
19.74
28.68
35.04
39.30
41.69
42.27
41.10
38.44
34.80
30.78
26.85
23.21
19.79
16.45
13.13
10.05
7.51
5.82
5.02
4.82
4.64
3.86
2.01
-0.96
-4.78
-8.96
-13.05
-16.75
-20.09
-23.32
-26.80
-30.89
-35.83
-41.67
-48.31
-55.32
-61.91
-66.90
-68.91
-66.73
-59.70
-48.09
-33.16
-16.85
-1.29
11.80
21.45
27.60
30.79
31.77
31.14
29.11
25.62
20.53
13.91
6.16
-2.04
-9.99
-17.08
-22.93
-27.32
-30.08
-31.13
-30.66
-29.20
-27.66
-26.99
-27.63
-29.25
-30.65
-30.35
-27.32
-21.57
-14.28
-7.39
-2.75
-1.53
-3.83
-8.86
-15.29
-21.59
-26.33
-28.14
-25.90
-18.92
-7.39
7.50
23.59
38.41
49.93
57.27
60.74
61.57
61.08
60.11
58.79
56.83
53.95
50.16
45.85
41.53
37.59
34.21
31.47
29.52
28.52
28.48
29.11
29.77
29.65
28.12
25.02
20.68
15.64
10.41
5.20
-0.10
-5.71
-11.79
-18.21
-24.51
-29.87
-33.24
-33.57
-30.10
-22.61
-11.55
1.98
16.54
30.67
43.16
53.14
60.15
64.03
64.89
63.11
59.25
53.97
47.91
41.64
35.58
30.08
25.34
21.46
18.34
15.70
13.23
10.71
8.04
5.22
2.31
-0.75
-4.05
-7.75
-11.89
-16.35
-20.95
-25.50
-29.99
-34.61
-39.73
-45.66
-52.29
-58.94
-64.35
-67.02
-65.64
-59.69
-49.64
-36.77
-22.80
-9.39
2.28
11.56
18.26
22.49
24.54
24.88
24.02
22.48
20.66
18.75
16.78
14.74
12.64
10.52
8.45
6.45
4.52
2.69
1.03
-0.40
-1.63
-2.88
-4.47
-6.73
-9.74
-13.34
-17.22
-21.10
-24.93
-28.92
-33.36
-38.58
-44.70
-51.62
-58.80
-65.30
-69.73
-70.61
-66.75
-57.80
-44.42
-28.16
-10.94
5.52
20.08
32.25
41.94
49.15
53.86
56.03
55.80
53.56
49.89
45.40
40.65
36.07
31.94
28.49
25.81
23.87
22.53
21.54
20.62
19.48
17.81
15.30
11.71
7.05
1.59
-4.13
-9.52
-14.26
-18.44
-22.56
-27.28
-33.13
-40.17
-47.93
-55.35
-61.04
-63.53
-61.68
-55.06
-44.14
-30.26
-15.25
-0.92
11.44
21.15
28.15
32.55
34.60
34.46
32.42
28.96
24.65
20.07
15.61
11.43
7.62
4.30
1.71
0.09
-0.51
-0.38
-0.10
-0.36
-1.59
-3.89
-6.98
-10.38
-13.66
-16.58
-19.14
-21.57
-24.27
-27.71
-32.26
-37.95
-44.24
-49.96
-53.53
-53.44
-48.73
-39.51
-26.91
-12.75
1.08
13.13
22.70
29.69
34.29
36.73
37.10
35.48
32.10
27.47
22.34
17.51
13.56
10.78
9.11
8.27
7.90
7.68
7.29
6.44
4.83
2.28
-1.29
-5.65
-10.41
-15.13
-19.51
-23.62
-27.82
-32.67
-38.59
-45.49
-52.56
-58.40
-61.35
-60.02
-53.74
-42.86
-28.63
-12.85
2.64
16.36
27.40
35.41
40.48
42.93
43.21
41.76
38.99
35.26
30.89
26.18
21.49
17.12
13.34
10.23
7.74
5.71
3.89
2.08
0.21
-1.80
-3.91
-6.11
-8.41
-10.84
-13.43
-16.32
-19.70
-23.83
-29.03
-35.45
-42.95
-50.81
-57.76
-62.17
-62.43
-57.52
-47.46
-33.31
-16.92
-0.34
14.71
27.21
36.85
43.80
48.43
51.04
51.92
51.29
49.47
46.85
43.89
40.93
38.15
35.52
32.96
30.40
27.96
25.80
24.12
22.88
21.75
20.23
17.81
14.22
9.60
4.37
-0.90
-5.82
-10.27
-14.51
-19.04
-24.39
-30.87
-38.36
-46.07
-52.62
-56.30
-55.61
-49.79
-39.12
-24.99
-9.43
5.44
18.06
27.59
34.00
37.67
39.14
38.84
37.13
34.39
31.04
27.60
24.56
22.25
20.77
20.03
19.77
19.84
20.14
20.74
21.66
22.81
23.88
24.40
23.83
21.78
18.15
13.18
7.37
1.35
-4.41
-9.68
-14.64
-19.70
-25.45
-32.36
-40.48
-49.21
-57.26
-62.90
-64.33
-60.35
-50.75
-36.45
-19.24
-1.26
15.55
29.90
41.17
49.30
54.45
56.94
57.11
55.42
52.47
48.98
45.63
42.86
40.81
39.24
37.74
35.94
33.71
31.18
28.68
26.45
24.57
22.80
20.78
18.17
14.78
10.60
5.61
-0.24
-7.05
-14.93
-23.82
-33.54
-43.86
-54.55
-65.34
-75.67
-84.58
-90.74
-92.78
-89.87
-82.17
-70.83
-57.74
-44.82
-33.52
-24.46
-17.62
-12.57
-8.86
-6.17
-4.26
-2.80
-1.30
0.89
4.46
9.78
16.83
25.09
33.65
41.55
48.01
52.60
55.32
56.40
56.13
54.62
51.83
47.55
41.60
34.07
25.35
16.14
7.27
-0.61
-7.20
-12.61
-17.34
-22.04
-27.35
-33.66
-40.96
-48.64
-55.53
-59.97
-60.25
-55.19
-44.57
-29.38
-11.54
6.60
23.05
36.57
46.81
54.09
58.96
61.85
63.01
62.57
60.71
57.79
54.28
50.62
47.05
43.59
40.09
36.37
32.41
28.43
24.77
21.78
19.57
17.98
16.54
14.68
11.87
7.90
2.92
-2.60
-8.05
-12.90
-16.89
-20.14
-23.02
-26.11
-29.98
-35.10
-41.64
-49.35
-57.42
-64.52
-68.96
-69.21
-64.33
-54.45
-40.72
-25.09
-9.61
4.08
15.15
23.47
29.37
33.27
35.41
35.91
34.85
32.49
29.34
26.02
23.14
21.09
19.90
19.33
19.04
18.79
18.55
18.50
18.82
19.51
20.21
20.37
19.34
16.79
12.81
7.89
2.74
-2.09
-6.36
-10.23
-14.08
-18.36
-23.36
-29.18
-35.77
-42.85
-49.92
-56.16
-60.42
-61.48
-58.33
-50.64
-38.95
-24.59
-9.34
5.13
17.68
27.81
35.53
41.01
44.43
45.82
45.23
42.91
39.36
35.27
31.28
27.75
24.65
21.66
18.43
14.83
11.11
7.70
5.01
3.09
1.50
-0.46
-3.44
-7.68
-12.88
-18.37
-23.35
-27.28
-30.01
-31.82
-33.31
-35.16
-37.98
-42.02
-46.94
-51.74
-54.87
-54.66
-49.94
-40.40
-26.84
-10.94
5.29
20.04
32.13
41.13
47.21
50.82
52.46
52.50
51.22
48.87
45.76
42.31
38.94
35.96
33.51
31.51
29.80
28.19
26.58
24.99
23.45
21.96
20.45
18.70
16.47
13.54
9.76
5.22
0.20
-4.82
-9.33
-13.02
-15.90
-18.34
-20.95
-24.32
-28.90
-34.78
-41.69
-48.91
-55.31
-59.38
-59.57
-54.76
-44.67
-30.15
-13.02
4.47
20.27
33.05
42.41
48.63
52.37
54.24
54.67
53.87
51.92
48.88
44.89
40.14
34.87
29.37
23.90
18.72
14.06
10.08
6.90
4.57
3.06
2.24
1.81
1.35
0.41
-1.46
-4.50
-8.71
-13.81
-19.31
-24.67
-29.41
-33.27
-36.23
-38.64
-41.02
-44.08
-48.35
-54.07
-60.86
-67.72
-73.13
-75.39
-73.20
-66.00
-54.19
-39.07
-22.41
-6.07
8.48
20.36
29.31
35.47
39.26
41.15
41.59
41.00
39.77
38.22
36.57
34.95
33.40
31.90
30.49
29.21
28.21
27.60
27.48
27.79
28.36
28.86
29.01
28.56
27.44
25.74
23.62
21.24
18.72
16.07
13.27
10.22
6.80
2.81
-1.94
-7.64
-14.41
-22.31
-31.38
-41.57
-52.68
-64.14
-74.88
-83.39
-88.03
-87.49
-81.31
-69.97
-54.83
-37.71
-20.39
-4.31
9.56
20.72
29.01
34.49
37.45
38.34
37.81
36.65
35.68
35.58
36.84
39.59
43.70
48.90
54.83
61.20
67.71
73.98
79.48
83.61
85.94
86.49
85.78
84.75
84.33
84.85
85.77
85.65
82.74
75.68
64.11
48.71
30.79
11.64
-7.82
-26.93
-44.81
-60.07
-71.06
-76.54
-76.36
-71.72
-64.65
-57.12
-50.17
-43.75
-37.15
-29.70
-21.27
-12.23
-3.16
5.52
13.54
20.53
25.81
28.52
28.19
25.30
21.32
18.23
17.55
19.39
22.21
23.34
20.04
10.68
-4.89
-25.34
-48.58
-72.32
-94.63
-114.23
-130.67
-144.37
-156.58
-168.96
-182.88
-198.73
-215.55
-231.38
-243.98
-251.84
-254.81
-254.02
-251.27
-248.07
-245.00
-241.36
-235.48
-225.35
-209.38
-187.08
-159.19
-127.46
-94.03
-60.76
-28.80
1.35
29.60
55.89
80.01
101.73
120.98
138.00
153.19
166.69
177.92
185.53
187.73
182.88
170.26
150.37
125.07
97.15
69.65
45.04
24.56
7.93
-6.38
-20.33
-35.25
-51.07
-66.16
-78.04
-84.41
-84.30
-78.44
-69.09
-59.10
-50.96
-45.92
-43.81
-43.30
-42.38
-39.07
-31.90
-20.18
-4.08
15.53
37.32
59.93
82.13
103.04
121.99
138.36
151.33
159.97
163.41
161.36
154.36
143.90
131.93
120.34
110.37
102.47
96.54
92.32
89.66
88.48
88.51
89.01
88.80
86.56
81.29
72.68
61.21
47.97
34.24
21.13
9.32
-1.03
-10.15
-18.52
-26.63
-34.86
-43.29
-51.56
-58.84
-63.92
-65.45
-62.43
-54.53
-42.35
-27.31
-11.19
4.36
18.29
30.18
40.10
48.18
54.41
58.59
60.51
60.22
58.10
54.77
50.82
46.68
42.48
38.14
33.60
28.88
24.17
19.68
15.61
11.98
8.67
5.38
1.81
-2.32
-7.02
-12.05
-16.99
-21.32
-24.77
-27.41
-29.74
-32.45
-36.21
-41.35
-47.70
-54.60
-60.97
-65.50
-66.88
-64.15
-57.01
-45.98
-32.35
-17.88
-4.26
7.36
16.51
23.33
28.17
31.39
33.10
33.33
32.19
30.01
27.28
24.52
22.06
19.99
18.20
16.54
14.90
13.33
11.91
10.70
9.62
8.42
6.78
4.43
1.27
-2.64
-7.05
-11.68
-16.21
-20.44
-24.25
-27.69
-31.04
-34.71
-39.16
-44.65
-50.96
-57.22
-62.06
-63.89
-61.48
-54.34
-42.97
-28.71
-13.37
1.29
14.02
24.13
31.52
36.41
39.19
40.22
39.87
38.48
36.36
33.82
31.20
28.78
26.81
25.40
24.48
23.81
23.01
21.85
20.25
18.41
16.66
15.17
13.87
12.40
10.28
7.19
3.12
-1.62
-6.56
-11.31
-15.71
-19.80
-23.73
-27.68
-31.77
-36.16
-41.06
-46.71
-53.10
-59.78
-65.68
-69.30
-69.05
-63.91
-53.87
-39.99
-24.16
-8.51
5.26
16.19
24.17
29.59
33.06
35.08
35.90
35.61
34.31
32.21
29.73
27.38
25.57
24.47
23.94
23.60
23.04
22.02
20.55
18.80
16.97
15.08
12.96
10.27
6.77
2.43
-2.53
-7.70
-12.60
-16.92
-20.48
-23.40
-25.96
-28.53
-31.50
-35.15
-39.55
-44.44
-49.19
-52.77
-53.90
-51.37
-44.42
-33.06
-18.12
-1.13
16.15
32.17
45.83
56.65
64.56
69.76
72.61
73.59
73.24
72.12
70.64
69.01
67.10
64.49
60.68
55.21
47.90
38.93
28.89
18.60
8.93
0.44
-6.66
-12.64
-18.05
-23.36
-28.79
-34.15
-39.01
-42.99
-46.06
-48.65
-51.56
-55.66
-61.56
-69.38
-78.67
-88.53
-97.76
-104.92
-108.58
-107.49
-100.93
-89.07
-73.01
-54.61
-36.01
-18.98
-4.58
6.98
16.01
22.98
28.24
31.97
34.24
35.30
35.53
35.40
35.36
35.61
36.17
36.88
37.60
38.25
38.85
39.43
39.98
40.36
40.27
39.35
37.23
33.65
28.52
22.03
14.62
6.88
-0.58
-7.34
-13.30
-18.65
-23.84
-29.43
-35.93
-43.63
-52.41
-61.53
-69.66
-74.99
-75.75
-70.81
-60.13
-44.93
-27.27
-9.48
6.54
19.73
29.87
37.25
42.35
45.54
47.03
46.94
45.48
43.01
39.92
36.64
33.44
30.45
27.70
25.12
22.68
20.37
18.21
16.24
14.54
13.12
11.95
10.89
9.62
7.76
4.99
1.23
-3.31
-8.09
-12.48
-16.05
-18.69
-20.73
-22.73
-25.32
-28.97
-33.91
-39.99
-46.64
-52.79
-56.96
-57.56
-53.34
-43.93
-30.08
-13.53
3.47
18.84
31.17
39.94
45.34
47.88
48.10
46.42
43.18
38.73
33.52
28.13
23.11
18.91
15.74
13.60
12.28
11.44
10.72
9.83
8.63
7.10
5.25
3.05
0.42
-2.81
-6.66
-10.96
-15.26
-18.98
-21.67
-23.18
-23.82
-24.22
-25.17
-27.30
-30.97
-36.12
-42.22
-48.21
-52.66
-53.91
-50.64
-42.34
-29.59
-13.98
2.39
17.58
30.31
40.14
47.22
51.93
54.57
55.31
54.33
52.02
48.98
45.91
43.29
41.33
39.86
38.56
37.15
35.54
33.88
32.40
31.26
30.40
29.50
28.05
25.49
21.38
15.56
8.15
-0.38
-9.40
-18.25
-26.44
-33.83
-40.67
-47.47
-54.88
-63.34
-72.78
-82.50
-91.08
-96.75
-97.82
-93.30
-83.23
-68.74
-51.68
-34.10
-17.63
-3.22
8.89
18.83
26.79
32.90
37.13
39.53
40.32
39.88
38.68
37.21
35.82
34.66
33.78
33.04
32.36
31.66
30.96
30.33
29.80
29.28
28.46
26.97
24.41
20.63
15.82
10.49
5.28
0.73
-2.97
-6.09
-9.21
-13.14
-18.58
-25.90
-34.98
-45.06
-54.76
-62.32
-65.95
-64.39
-57.32
-45.54
-30.79
-15.19
-0.62
11.74
21.46
28.70
33.84
37.19
38.95
39.29
38.47
36.87
34.99
33.20
31.75
30.68
29.92
29.34
28.88
28.52
28.31
28.33
28.55
28.84
28.89
28.28
26.56
23.44
18.92
13.30
7.15
1.06
-4.50
-9.38
-13.77
-18.18
-23.19
-29.29
-36.69
-45.10
-53.77
-61.47
-66.70
-68.03
-64.50
-55.89
-42.98
-27.33
-10.91
4.45
17.48
27.63
34.93
39.76
42.52
43.54
43.06
41.35
38.77
35.74
32.65
29.68
26.83
23.96
20.93
17.71
14.46
11.44
8.87
6.77
4.94
2.95
0.32
-3.24
-7.70
-12.65
-17.47
-21.55
-24.58
-26.73
-28.60
-31.02
-34.75
-40.12
-46.81
-53.83
-59.65
-62.62
-61.41
-55.45
-45.11
-31.66
-16.84
-2.42
10.25
20.43
27.85
32.61
34.88
34.90
32.97
29.62
25.55
21.55
18.24
15.91
14.51
13.67
13.01
12.30
11.58
11.08
11.04
11.54
12.25
12.59
11.84
9.50
5.49
0.21
-5.63
-11.23
-16.05
-19.94
-23.13
-26.14
-29.56
-33.90
-39.42
-46.05
-53.15
-59.58
-63.75
-64.01
-59.23
-49.18
-34.79
-17.91
-0.80
14.55
26.87
35.80
41.70
45.25
47.06
47.54
46.84
45.11
42.62
39.80
37.14
35.04
33.57
32.52
31.45
29.94
27.79
25.14
22.35
19.82
17.71
15.84
13.72
10.77
6.58
1.14
-5.21
-11.81
-17.96
-23.10
-26.95
-29.57
-31.24
-32.46
-33.82
-35.91
-39.23
-43.84
-49.35
-54.62
-58.07
-57.98
-53.11
-43.15
-29.04
-12.64
3.75
18.17
29.48
37.50
42.78
46.10
48.09
49.08
49.15
48.35
46.83
44.95
43.10
41.57
40.39
39.42
38.40
37.14
35.60
33.82
31.87
29.69
27.11
23.92
20.06
15.61
10.82
5.93
1.05
-3.88
-9.04
-14.55
-20.34
-26.20
-31.77
-36.68
-40.69
-43.76
-46.06
-47.94
-49.90
-52.41
-55.80
-60.00
-64.38
-67.72
-68.50
-65.30
-57.35
-44.94
-29.36
-12.64
3.11
16.26
25.98
32.32
35.88
37.49
37.87
37.48
36.56
35.20
33.51
31.62
29.77
28.14
26.82
25.77
24.83
23.77
22.42
20.79
18.97
17.09
15.28
13.55
11.81
9.89
7.62
4.89
1.72
-1.74
-5.15
-8.06
-10.13
-11.15
-11.25
-10.86
-10.70
-11.60
-14.28
-19.12
-25.97
-33.95
-41.57
-46.94
-48.29
-44.50
-35.56
-22.60
-7.55
7.44
20.64
31.09
38.62
43.52
46.22
47.02
46.15
43.85
40.53
36.79
33.22
30.33
28.35
27.31
27.08
27.41
28.02
28.65
29.08
29.22
29.08
28.73
28.22
27.38
25.90
23.45
19.81
15.11
9.73
4.15
-1.25
-6.36
-11.29
-16.27
-21.51
-27.17
-33.37
-40.18
-47.60
-55.31
-62.56
-68.00
-70.10
-67.45
-59.41
-46.33
-29.56
-11.07
7.06
23.06
35.86
45.09
50.96
54.08
55.15
54.86
53.74
52.16
50.32
48.25
45.85
42.91
39.19
34.53
29.00
22.86
16.57
10.50
4.90
-0.24
-5.13
-9.99
-14.92
-19.89
-24.77
-29.43
-33.79
-37.94
-41.98
-46.08
-50.33
-54.79
-59.38
-63.97
-68.32
-72.26
-75.67
-78.61
-81.31
-84.05
-86.96
-89.68
-91.31
-90.53
-85.90
-76.53
-62.41
-44.54
-24.66
-4.72
13.67
29.59
42.76
53.29
61.41
67.26
70.91
72.52
72.35
70.83
68.45
65.59
62.55
59.49
56.49
53.64
51.06
48.90
47.31
46.31
45.72
45.17
44.11
42.07
38.81
34.42
29.35
24.18
19.41
15.24
11.55
7.91
3.80
-1.27
-7.52
-14.85
-22.94
-31.37
-39.74
-47.93
-56.06
-64.39
-73.05
-81.69
-89.33
-94.46
-95.55
-91.56
-82.47
-69.33
-53.99
-38.56
-24.76
-13.61
-5.33
0.32
3.82
5.60
6.07
5.67
4.92
4.49
4.97
6.61
9.24
12.23
14.72
15.96
15.62
13.92
11.48
9.08
7.29
6.30
5.87
5.47
4.45
2.32
-1.17
-5.93
-11.56
-17.43
-22.95
-27.67
-31.52
-34.78
-37.95
-41.52
-45.71
-50.21
-54.24
-56.58
-55.86
-50.92
-41.10
-26.54
-8.15
12.54
33.67
53.42
70.24
83.02
91.04
94.01
92.09
85.88
76.44
65.09
53.12
41.55
30.98
21.63
13.45
6.34
0.17
-5.17
-9.85
-14.08
-18.09
-21.98
-25.76
-29.26
-32.27
-34.61
-36.14
-36.81
-36.63
-35.60
-33.75
-31.20
-28.16
-25.01
-22.26
-20.43
-20.01
-21.33
-24.52
-29.61
-36.40
-44.37
-52.53
-59.38
-63.13
-62.20
-55.77
-44.20
-28.99
-12.29
3.70
17.44
28.19
36.01
41.38
44.87
46.92
47.80
47.67
46.71
45.16
43.35
41.60
40.12
38.95
37.94
36.86
35.54
33.99
32.33
30.76
29.37
28.05
26.52
24.48
21.77
18.44
14.70
10.83
6.95
3.10
-0.81
-4.91
-9.23
-13.66
-18.04
-22.15
-25.90
-29.43
-33.13
-37.63
-43.56
-51.28
-60.41
-69.78
-77.45
-81.27
-79.56
-71.74
-58.58
-41.92
-24.07
-7.12
7.53
19.33
28.33
34.87
39.32
41.96
43.06
42.90
41.85
40.25
38.43
36.58
34.83
33.24
31.90
30.93
30.45
30.46
30.83
31.24
31.34
30.88
29.79
28.16
26.18
23.95
21.43
18.51
15.03
10.93
6.29
1.27
-3.94
-9.15
-14.27
-19.26
-24.23
-29.47
-35.38
-42.36
-50.62
-59.78
-68.80
-76.06
-79.70
-78.25
-71.17
-59.08
-43.59
-26.79
-10.64
3.54
15.15
24.17
30.83
35.35
37.85
38.47
37.54
35.64
33.50
31.77
30.80
30.58
30.78
30.98
30.88
30.46
29.93
29.56
29.43
29.30
28.69
27.01
23.87
19.24
13.49
7.22
1.06
-4.57
-9.52
-13.99
-18.40
-23.33
-29.35
-36.89
-46.06
-56.32
-66.47
-74.67
-78.93
-77.71
-70.47
-57.93
-41.82
-24.33
-7.46
7.48
19.89
29.74
37.20
42.40
45.44
46.43
45.68
43.73
41.26
38.91
37.15
36.16
35.77
35.62
35.30
34.48
33.12
31.34
29.39
27.47
25.52
23.26
20.24
16.09
10.73
4.43
-2.27
-8.74
-14.57
-19.68
-24.28
-28.83
-33.84
-39.75
-46.87
-55.22
-64.44
-73.57
-81.11
-85.23
-84.30
-77.41
-64.82
-47.96
-28.99
-10.19
6.66
20.66
31.72
40.28
46.95
52.15
56.05
58.61
59.77
59.63
58.45
56.69
54.78
53.05
51.56
50.18
48.70
46.99
45.07
43.12
41.34
39.86
38.62
37.36
35.72
33.36
30.04
25.76
20.69
15.20
9.73
4.65
0.14
-3.88
-7.83
-12.39
-18.41
-26.64
-37.50
-50.71
-65.13
-78.77
-89.22
-94.28
-92.72
-84.64
-71.45
-55.31
-38.42
-22.52
-8.59
2.95
12.08
18.89
23.59
26.48
27.93
28.40
28.24
27.76
27.18
26.77
26.85
27.70
29.45
32.00
35.06
38.24
41.22
43.77
45.71
46.86
47.03
46.09
43.95
40.65
36.35
31.18
25.36
19.10
12.69
6.44
0.63
-4.68
-9.60
-14.53
-20.00
-26.57
-34.63
-44.28
-55.11
-66.06
-75.51
-81.47
-82.23
-76.89
-65.75
-50.37
-32.95
-15.75
-0.35
12.56
23.05
31.56
38.46
43.91
47.89
50.44
51.80
52.42
52.75
53.07
53.35
53.30
52.50
50.59
47.38
43.00
37.79
32.29
27.08
22.57
18.88
15.72
12.54
8.72
3.80
-2.27
-9.17
-16.34
-23.27
-29.66
-35.57
-41.33
-47.37
-54.03
-61.38
-69.18
-76.72
-82.94
-86.55
-86.24
-81.17
-71.20
-57.05
-40.20
-22.45
-5.50
9.47
21.98
32.10
40.26
46.82
51.98
55.72
57.98
58.77
58.30
56.94
55.13
53.26
51.56
50.10
48.78
47.45
45.90
43.98
41.55
38.54
34.89
30.59
25.67
20.17
14.18
7.87
1.36
-5.21
-11.76
-18.19
-24.34
-30.01
-34.98
-39.22
-42.97
-46.83
-51.55
-57.82
-65.81
-74.96
-83.87
-90.60
-93.08
-89.78
-80.24
-65.26
-46.74
-27.06
-8.46
7.56
20.45
30.45
38.27
44.58
49.83
54.15
57.40
59.45
60.18
59.63
57.97
55.44
52.36
49.05
45.88
43.18
41.20
39.98
39.29
38.60
37.24
34.67
30.72
25.68
20.21
15.00
10.49
6.69
3.25
-0.33
-4.47
-9.28
-14.59
-20.01
-25.08
-29.44
-32.94
-35.72
-38.27
-41.35
-45.73
-51.81
-59.30
-67.01
-73.00
-75.18
-71.95
-62.87
-48.82
-31.80
-14.20
1.98
15.49
26.05
33.94
39.66
43.63
46.07
47.17
47.12
46.24
44.83
43.16
41.36
39.43
37.39
35.30
33.30
31.61
30.45
29.97
30.13
30.73
31.35
31.47
30.64
28.61
25.46
21.57
17.47
13.69
10.52
7.84
5.27
2.25
-1.63
-6.44
-11.84
-17.30
-22.29
-26.55
-30.13
-33.34
-36.66
-40.58
-45.49
-51.59
-58.71
-66.11
-72.46
-76.02
-75.19
-69.00
-57.62
-42.37
-25.28
-8.48
6.42
18.61
27.99
34.92
39.84
43.12
44.99
45.65
45.25
44.00
42.08
39.65
36.93
34.13
31.50
29.23
27.37
25.83
24.38
22.69
20.53
17.75
14.36
10.51
6.49
2.61
-0.88
-3.90
-6.55
-9.19
-12.29
-16.29
-21.40
-27.53
-34.29
-41.14
-47.67
-53.77
-59.71
-65.94
-72.78
-79.99
-86.63
-91.20
-92.09
-88.23
-79.44
-66.60
-51.26
-35.16
-19.70
-5.77
6.23
16.22
24.17
30.06
33.88
35.81
36.22
35.67
34.78
34.10
34.05
34.83
36.54
39.17
42.63
46.71
51.03
55.06
58.13
59.61
59.05
56.29
51.50
45.12
37.81
30.21
22.91
16.27
10.32
4.82
-0.59
-6.18
-11.94
-17.59
-22.69
-26.94
-30.36
-33.33
-36.48
-40.42
-45.58
-52.03
-59.36
-66.75
-72.86
-76.13
-75.11
-68.98
-57.88
-43.01
-26.25
-9.63
5.28
17.61
27.27
34.53
39.79
43.40
45.56
46.47
46.39
45.64
44.52
43.23
41.89
40.53
39.15
37.79
36.51
35.37
34.44
33.72
33.15
32.63
32.00
31.07
29.66
27.67
25.11
22.09
18.81
15.45
12.12
8.79
5.29
1.36
-3.19
-8.43
-14.16
-19.99
-25.49
-30.33
-34.43
-38.01
-41.52
-45.49
-50.38
-56.40
-63.40
-70.74
-77.29
-81.56
-82.04
-77.66
-68.18
-54.31
-37.64
-20.11
-3.56
10.69
21.96
30.14
35.49
38.47
39.63
39.57
38.86
37.97
37.20
36.59
36.03
35.33
34.33
32.98
31.38
29.72
28.24
27.10
26.34
25.87
25.42
24.67
23.29
21.11
18.16
14.66
10.92
7.25
3.79
0.49
-2.81
-6.28
-10.05
-14.06
-18.16
-22.14
-25.81
-29.10
-32.12
-35.11
-38.47
-42.61
-47.77
-53.81
-60.07
-65.35
-68.12
-66.98
-61.13
-50.72
-36.89
-21.45
-6.39
6.71
16.96
24.24
28.96
31.67
32.84
32.69
31.35
28.94
25.81
22.48
19.52
17.37
16.15
15.67
15.54
15.37
14.96
14.36
13.69
13.07
12.50
11.78
10.70
9.07
6.80
3.95
0.67
-2.89
-6.54
-10.12
-13.48
-16.58
-19.48
-22.32
-25.34
-28.84
-33.08
-38.24
-44.30
-50.85
-56.99
-61.35
-62.45
-59.14
-51.08
-38.94
-24.25
-8.90
5.41
17.57
27.17
34.32
39.30
42.41
43.84
43.81
42.62
40.71
38.60
36.70
35.28
34.32
33.67
33.11
32.46
31.70
30.89
30.10
29.34
28.48
27.25
25.38
22.62
18.89
14.33
9.21
3.90
-1.31
-6.31
-11.15
-15.98
-20.96
-26.10
-31.23
-36.02
-40.14
-43.47
-46.12
-48.55
-51.37
-55.22
-60.44
-66.92
-73.94
-80.19
-84.05
-83.99
-78.98
-68.87
-54.49
-37.46
-19.71
-3.00
11.50
23.37
32.73
39.96
45.34
48.98
50.89
51.18
50.14
48.28
46.13
44.02
42.00
39.94
37.74
35.45
33.33
31.71
30.79
30.61
31.02
31.79
32.60
33.15
33.11
32.16
30.16
27.17
23.50
19.51
15.47
11.40
7.14
2.40
-2.98
-8.96
-15.25
-21.43
-27.16
-32.32
-37.06
-41.81
-47.13
-53.48
-61.04
-69.50
-77.97
-85.09
-89.30
-89.25
-84.20
-74.27
-60.46
-44.36
-27.75
-12.10
1.59
12.87
21.71
28.27
32.82
35.66
37.15
37.63
37.44
36.79
35.80
34.54
33.06
31.46
29.87
28.45
27.30
26.48
25.95
25.59
25.17
24.40
23.00
20.84
17.94
14.51
10.89
7.39
4.24
1.43
-1.16
-3.74
-6.55
-9.68
-13.07
-16.52
-19.80
-22.76
-25.46
-28.19
-31.48
-35.82
-41.51
-48.32
-55.38
-61.25
-64.29
-63.05
-56.86
-46.02
-31.79
-15.99
-0.45
13.45
24.98
33.97
40.57
45.02
47.49
48.20
47.39
45.46
42.90
40.17
37.63
35.46
33.71
32.29
31.12
30.11
29.27
28.63
28.24
28.01
27.70
26.96
25.45
23.03
19.82
16.18
12.48
8.96
5.58
2.14
-1.65
-5.92
-10.61
-15.49
-20.26
-24.66
-28.61
-32.19
-35.69
-39.60
-44.42
-50.56
-58.02
-66.18
-73.79
-79.08
-80.31
-76.28
-66.79
-52.77
-35.98
-18.56
-2.33
11.51
22.55
30.94
37.13
41.58
44.64
46.51
47.35
47.29
46.52
45.22
43.60
41.82
39.98
38.14
36.32
34.53
32.83
31.30
29.99
28.86
27.80
26.61
25.05
22.93
20.15
16.77
12.99
9.16
5.68
2.74
0.35
-1.80
-4.20
-7.24
-11.08
-15.51
-20.12
-24.44
-28.27
-31.68
-35.00
-38.70
-43.17
-48.70
-55.28
-62.53
-69.68
-75.50
-78.55
-77.46
-71.47
-60.67
-46.11
-29.52
-12.87
2.23
14.79
24.52
31.66
36.66
39.99
41.99
42.95
43.13
42.81
42.22
41.45
40.42
39.01
37.19
35.10
33.09
31.57
30.83
30.79
31.07
31.01
30.04
27.81
24.38
20.16
15.71
11.62
8.17
5.36
2.83
0.09
-3.30
-7.51
-12.34
-17.27
-21.73
-25.34
-28.06
-30.25
-32.52
-35.49
-39.64
-45.11
-51.58
-58.18
-63.58
-66.19
-64.65
-58.23
-47.20
-32.85
-17.08
-1.87
11.29
21.71
29.34
34.60
37.92
39.63
39.99
39.27
37.85
36.21
34.74
33.59
32.69
31.76
30.58
29.12
27.58
26.24
25.27
24.58
23.86
22.69
20.77
18.02
14.62
10.87
7.06
3.35
-0.29
-3.97
-7.88
-12.12
-16.70
-21.48
-26.20
-30.54
-34.26
-37.31
-39.94
-42.67
-46.18
-51.02
-57.34
-64.55
-71.35
-75.94
-76.55
-72.04
-62.33
-48.45
-32.22
-15.70
-0.58
12.20
22.41
30.31
36.30
40.65
43.50
44.95
45.17
44.51
43.39
42.21
41.24
40.51
39.96
39.40
38.74
37.95
37.09
36.25
35.42
34.51
33.34
31.73
29.55
26.85
23.78
20.54
17.28
14.08
10.95
7.87
4.82
1.77
-1.34
-4.62
-8.13
-11.88
-15.79
-19.72
-23.55
-27.22
-30.81
-34.51
-38.60
-43.42
-49.33
-56.48
-64.58
-72.75
-79.49
-83.00
-81.79
-75.17
-63.62
-48.60
-32.18
-16.28
-2.26
9.36
18.66
26.08
31.96
36.43
39.45
41.01
41.24
40.54
39.43
38.35
37.51
36.86
36.22
35.40
34.37
33.26
32.24
31.42
30.73
29.96
28.85
27.17
24.81
21.77
18.17
14.26
10.32
6.64
3.39
0.59
-1.94
-4.47
-7.28
-10.46
-13.90
-17.31
-20.46
-23.26
-25.89
-28.72
-32.24
-36.85
-42.76
-49.81
-57.44
-64.61
-69.93
-71.90
-69.35
-61.76
-49.57
-34.07
-17.12
-0.61
14.00
25.93
35.08
41.76
46.36
49.20
50.47
50.30
48.91
46.63
43.84
40.88
37.93
35.09
32.34
29.70
27.18
24.86
22.76
20.90
19.26
17.80
16.46
15.15
13.69
11.91
9.63
6.75
3.29
-0.64
-4.90
-9.36
-13.89
-18.46
-23.10
-27.96
-33.28
-39.26
-45.95
-53.01
-59.58
-64.40
-66.07
-63.49
-56.24
-44.83
-30.53
-15.08
-0.11
13.20
24.30
33.13
39.87
44.67
47.50
48.39
47.42
44.98
41.68
38.16
34.96
32.33
30.23
28.41
26.62
24.71
22.67
20.60
18.56
16.52
14.32
11.75
8.62
4.83
0.41
-4.50
-9.69
-14.93
-20.01
-24.77
-29.12
-33.10
-36.89
-40.76
-45.12
-50.31
-56.54
-63.61
-70.80
-76.84
-80.15
-79.26
-73.35
-62.55
-48.00
-31.49
-14.92
0.22
13.05
23.35
31.27
37.12
41.17
43.62
44.59
44.26
42.89
40.79
38.39
36.11
34.22
32.79
31.72
30.79
29.78
28.63
27.44
26.31
25.28
24.17
22.69
20.44
17.18
12.81
7.52
1.63
-4.43
-10.25
-15.62
-20.49
-25.02
-29.51
-34.26
-39.57
-45.53
-52.05
-58.68
-64.53
-68.40
-68.94
-65.14
-56.68
-44.21
-29.20
-13.50
1.21
13.86
24.05
31.93
37.81
41.99
44.62
45.85
45.85
44.91
43.39
41.58
39.74
38.01
36.45
35.10
33.95
32.94
31.98
30.99
29.88
28.61
27.12
25.31
23.10
20.35
16.96
12.91
8.28
3.21
-2.12
-7.46
-12.65
-17.57
-22.21
-26.64
-31.03
-35.62
-40.70
-46.48
-52.98
-59.78
-65.95
-70.12
-70.79
-66.89
-58.20
-45.53
-30.55
-15.16
-0.97
11.08
20.73
28.14
33.55
37.15
39.02
39.37
38.53
36.97
35.16
33.40
31.77
30.25
28.72
27.13
25.51
23.95
22.58
21.47
20.58
19.67
18.36
16.18
12.79
8.11
2.44
-3.61
-9.33
-14.16
-17.92
-20.86
-23.59
-26.80
-31.10
-36.78
-43.69
-51.17
-58.10
-63.01
-64.38
-61.07
-52.70
-39.85
-23.91
-6.75
9.92
24.82
37.35
47.35
54.91
60.06
62.77
63.07
61.14
57.47
52.72
47.60
42.67
38.20
34.29
30.81
27.60
24.49
21.32
17.96
14.25
10.15
5.68
0.95
-3.89
-8.72
-13.54
-18.40
-23.43
-28.66
-34.09
-39.57
-44.93
-50.06
-54.94
-59.63
-64.35
-69.31
-74.72
-80.59
-86.67
-92.33
-96.53
-97.98
-95.50
-88.36
-76.65
-61.31
-43.88
-26.06
-9.23
5.85
19.03
30.55
40.75
49.89
58.08
65.28
71.46
76.52
80.39
82.96
84.17
84.05
82.76
80.58
77.80
74.69
71.40
67.98
64.43
60.69
56.68
52.34
47.55
42.23
36.33
29.87
22.91
15.59
8.07
0.49
-6.94
-14.07
-20.75
-26.94
-32.68
-38.22
-43.92
-50.20
-57.36
-65.25
-73.12
-79.58
-82.88
-81.45
-74.51
-62.45
-46.75
-29.56
-12.96
1.55
13.40
22.73
30.00
35.65
39.81
42.43
43.42
42.89
41.15
38.73
36.11
33.63
31.43
29.48
27.70
26.03
24.46
23.04
21.81
20.72
19.65
18.38
16.60
14.04
10.52
6.08
0.98
-4.37
-9.55
-14.28
-18.54
-22.47
-26.31
-30.30
-34.70
-39.74
-45.68
-52.54
-59.94
-66.84
-71.71
-72.87
-69.10
-60.10
-46.71
-30.61
-13.82
1.86
15.25
25.86
33.71
39.12
42.45
44.08
44.36
43.68
42.46
41.06
39.73
38.51
37.33
36.06
34.64
33.16
31.76
30.59
29.62
28.63
27.28
25.29
22.61
19.46
16.20
13.14
10.33
7.52
4.25
0.15
-4.84
-10.40
-15.97
-21.04
-25.40
-29.21
-32.94
-37.17
-42.34
-48.66
-55.89
-63.33
-69.76
-73.56
-73.10
-67.29
-56.04
-40.41
-22.41
-4.32
11.96
25.35
35.65
43.22
48.64
52.32
54.55
55.48
55.36
54.49
53.18
51.59
49.69
47.31
44.26
40.54
36.41
32.32
28.79
26.19
24.56
23.59
22.69
21.24
18.82
15.28
10.85
5.99
1.17
-3.24
-7.13
-10.58
-13.82
-17.09
-20.48
-23.95
-27.34
-30.47
-33.19
-35.51
-37.60
-39.83
-42.68
-46.65
-52.05
-58.67
-65.67
-71.59
-74.67
-73.38
-66.97
-55.75
-41.00
-24.54
-8.21
6.60
19.06
28.85
35.96
40.57
42.98
43.68
43.28
42.35
41.36
40.47
39.59
38.54
37.16
35.43
33.52
31.68
30.18
29.18
28.74
28.70
28.77
28.56
27.72
26.06
23.59
20.53
17.14
13.59
9.90
5.91
1.45
-3.52
-8.89
-14.37
-19.65
-24.50
-28.82
-32.71
-36.36
-40.08
-44.21
-49.05
-54.76
-61.16
-67.60
-72.96
-75.85
-74.95
-69.51
-59.57
-46.13
-30.78
-15.33
-1.32
10.25
19.09
25.38
29.55
32.06
33.24
33.33
32.52
31.04
29.20
27.34
25.78
24.70
24.15
24.01
24.10
24.23
24.22
23.93
23.24
22.04
20.30
17.99
15.19
12.02
8.58
4.95
1.18
-2.64
-6.39
-9.91
-13.05
-15.75
-18.08
-20.28
-22.74
-25.92
-30.19
-35.66
-41.88
-47.82
-51.93
-52.59
-48.65
-39.88
-27.19
-12.30
2.73
16.12
26.69
34.00
38.16
39.64
38.97
36.65
33.12
28.69
23.69
18.47
13.47
9.18
6.01
4.15
3.51
3.76
4.46
5.23
5.83
6.14
6.10
5.67
4.80
3.51
1.91
0.14
-1.74
-3.77
-6.23
-9.40
-13.49
-18.48
-24.07
-29.82
-35.28
-40.17
-44.49
-48.45
-52.45
-56.88
-61.95
-67.52
-72.91
-76.99
-78.27
-75.44
-67.79
-55.60
-40.16
-23.37
-7.16
7.07
18.67
27.73
34.64
39.83
43.58
46.00
47.18
47.31
46.63
45.43
43.91
42.21
40.34
38.32
36.23
34.22
32.46
31.04
29.92
28.88
27.63
25.89
23.52
20.50
16.91
12.82
8.29
3.33
-2.00
-7.54
-13.08
-18.42
-23.47
-28.30
-33.12
-38.22
-43.84
-50.11
-56.99
-64.06
-70.49
-75.06
-76.35
-73.14
-64.91
-52.13
-36.23
-19.25
-3.19
10.48
21.13
28.87
34.23
37.77
39.85
40.63
40.18
38.69
36.48
34.00
31.65
29.66
28.05
26.65
25.23
23.69
22.03
20.42
18.96
17.64
16.28
14.54
12.03
8.51
3.97
-1.36
-7.03
-12.54
-17.51
-21.78
-25.45
-28.86
-32.49
-36.76
-41.98
-48.23
-55.22
-62.16
-67.85
-70.80
-69.71
-63.86
-53.43
-39.58
-24.06
-8.71
5.01
16.32
24.97
31.09
34.85
36.47
36.16
34.29
31.40
28.10
24.94
22.27
20.24
18.81
17.88
17.32
17.04
16.93
16.88
16.79
16.52
15.92
14.72
12.65
9.50
5.28
0.23
-5.18
-10.47
-15.37
-19.94
-24.58
-29.79
-36.05
-43.49
-51.81
-60.23
-67.51
-72.17
-72.80
-68.47
-59.05
-45.39
-29.11
-12.17
3.61
17.04
27.67
35.66
41.49
45.62
48.30
49.62
49.67
48.62
46.85
44.87
43.08
41.67
40.54
39.45
38.10
36.41
34.48
32.50
30.63
28.84
26.95
24.65
21.64
17.75
12.97
7.46
1.56
-4.33
-9.85
-14.77
-19.14
-23.25
-27.57
-32.59
-38.77
-46.28
-54.92
-64.03
-72.42
-78.53
-80.74
-77.86
-69.51
-56.34
-39.87
-22.12
-4.96
10.24
22.83
32.80
40.49
46.35
50.68
53.68
55.43
56.02
55.63
54.47
52.85
51.06
49.32
47.77
46.42
45.23
44.08
42.84
41.39
39.62
37.44
34.84
31.85
28.51
24.85
20.90
16.62
11.96
6.93
1.56
-3.96
-9.39
-14.52
-19.29
-23.87
-28.59
-33.93
-40.27
-47.83
-56.37
-65.17
-72.92
-78.00
-78.83
-74.37
-64.56
-50.40
-33.73
-16.67
-1.03
12.12
22.51
30.38
36.16
40.19
42.63
43.59
43.29
42.05
40.33
38.51
36.86
35.49
34.42
33.63
33.13
32.89
32.81
32.69
32.28
31.41
30.01
28.10
25.68
22.71
19.04
14.54
9.22
3.32
-2.75
-8.52
-13.65
-18.08
-21.98
-25.72
-29.78
-34.61
-40.60
-47.78
-55.65
-63.07
-68.40
-69.84
-66.16
-57.08
-43.52
-27.27
-10.46
5.09
18.27
28.68
36.46
42.00
45.69
47.86
48.78
48.72
47.97
46.78
45.35
43.86
42.38
40.98
39.69
38.59
37.76
37.24
36.96
36.64
35.84
34.12
31.17
27.05
22.16
17.18
12.67
8.90
5.68
2.51
-1.22
-5.89
-11.48
-17.59
-23.65
-29.16
-33.87
-37.94
-41.80
-46.09
-51.37
-57.93
-65.59
-73.45
-80.05
-83.56
-82.34
-75.46
-63.12
-46.66
-28.17
-9.90
6.37
19.66
29.84
37.36
42.85
46.89
49.79
51.71
52.70
52.82
52.24
51.15
49.81
48.36
46.88
45.33
43.64
41.80
39.82
37.78
35.73
33.62
31.28
28.48
25.06
21.04
16.68
12.35
8.45
5.20
2.53
0.20
-2.10
-4.53
-6.99
-9.20
-10.90
-12.03
-12.84
-13.87
-15.79
-19.20
-24.57
-32.15
-41.97
-53.64
-66.25
-78.20
-87.43
-91.78
-89.71
-80.78
-65.92
-47.18
-27.10
-8.08
8.21
20.92
30.01
35.82
38.88
39.68
38.68
36.34
33.17
29.72
26.51
23.99
22.46
22.10
22.92
24.82
27.51
30.61
33.61
35.98
37.28
37.18
35.50
32.21
27.49
21.73
15.56
9.74
4.94
1.52
-0.59
-1.92
-3.23
-5.28
-8.51
-12.94
-18.27
-24.09
-30.03
-36.03
-42.30
-49.24
-57.19
-66.08
-75.27
-83.38
-88.58
-89.05
-83.57
-72.08
-55.74
-36.78
-17.73
-0.85
12.48
21.86
27.71
30.80
31.90
31.63
30.44
28.82
27.27
26.25
26.04
26.55
27.37
27.98
27.94
27.10
25.67
24.04
22.60
21.60
21.01
20.64
20.16
19.24
17.57
15.00
11.52
7.35
2.85
-1.63
-5.87
-9.91
-14.08
-18.84
-24.61
-31.55
-39.42
-47.49
-54.64
-59.53
-60.86
-57.71
-49.83
-37.85
-23.11
-7.44
7.36
19.85
29.30
35.73
39.64
41.80
42.93
43.60
44.14
44.77
45.56
46.49
47.35
47.74
47.18
45.22
41.69
36.81
31.19
25.57
20.54
16.32
12.81
9.76
7.07
4.94
3.69
3.52
4.18
4.87
4.47
1.97
-3.05
-10.25
-18.64
-27.01
-34.42
-40.47
-45.29
-49.41
-53.39
-57.71
-62.59
-67.89
-72.97
-76.72
-77.66
-74.43
-66.30
-53.61
-37.82
-21.08
-5.57
7.25
16.87
23.63
28.32
31.73
34.44
36.76
38.94
41.24
43.85
46.86
50.08
53.04
55.14
55.86
55.02
52.88
50.04
47.17
44.78
42.99
41.53
39.89
37.58
34.31
30.16
25.51
20.86
16.66
13.10
10.07
7.18
3.93
-0.08
-4.99
-10.60
-16.43
-21.93
-26.69
-30.61
-34.01
-37.50
-41.84
-47.62
-54.88
-62.88
-70.12
-74.61
-74.50
-68.70
-57.29
-41.58
-23.73
-6.12
9.27
21.23
29.38
34.02
35.86
35.71
34.30
32.18
29.68
26.97
24.15
21.32
18.63
16.27
14.41
13.16
12.54
12.51
12.99
13.82
14.82
15.69
16.10
15.78
14.59
12.58
9.99
7.13
4.24
1.35
-1.72
-5.27
-9.58
-14.67
-20.38
-26.39
-32.36
-38.17
-43.92
-49.97
-56.72
-64.46
-73.02
-81.68
-89.10
-93.54
-93.34
-87.43
-75.75
-59.38
-40.33
-20.93
-3.24
11.42
22.61
30.54
35.75
38.74
39.91
39.55
38.03
35.86
33.60
31.77
30.57
29.86
29.28
28.41
27.03
25.23
23.32
21.74
20.77
20.33
19.99
19.05
16.80
12.83
7.26
0.67
-6.09
-12.22
-17.34
-21.55
-25.37
-29.47
-34.47
-40.70
-48.14
-56.34
-64.44
-71.14
-74.94
-74.42
-68.79
-58.23
-43.97
-27.98
-12.33
1.43
12.61
21.34
28.22
33.78
38.26
41.58
43.51
43.95
43.02
41.10
38.62
35.97
33.43
31.16
29.27
27.84
26.95
26.58
26.62
26.82
26.92
26.67
26.01
25.04
23.97
22.98
22.03
20.85
19.00
15.96
11.38
5.18
-2.41
-10.86
-19.65
-28.41
-37.16
-46.27
-56.20
-67.02
-78.03
-87.62
-93.61
-93.90
-87.36
-74.22
-56.15
-35.67
-15.43
2.58
17.32
28.63
36.96
42.91
47.03
49.70
51.20
51.81
51.80
51.37
50.64
49.61
48.22
46.50
44.68
43.13
42.26
42.29
43.07
44.02
44.28
42.93
39.39
33.64
26.23
18.11
10.31
3.59
-1.78
-5.97
-9.45
-12.71
-16.08
-19.63
-23.27
-26.84
-30.26
-33.60
-37.15
-41.35
-46.70
-53.54
-61.76
-70.55
-78.38
-83.26
-83.27
-77.29
-65.46
-49.20
-30.86
-13.02
2.23
13.72
21.31
25.63
27.71
28.59
29.16
29.96
31.28
33.09
35.17
37.10
38.49
39.00
38.57
37.37
35.78
34.22
32.96
32.01
31.13
29.96
28.22
25.85
22.97
19.80
16.57
13.38
10.25
7.14
4.03
0.95
-2.00
-4.71
-7.09
-9.16
-11.09
-13.27
-16.34
-20.95
-27.65
-36.58
-47.27
-58.61
-69.00
-76.61
-79.82
-77.63
-69.93
-57.53
-42.00
-25.34
-9.39
4.37
15.18
22.92
27.97
30.94
32.40
32.82
32.45
31.51
30.22
28.82
27.52
26.47
25.67
25.07
24.71
24.70
25.22
26.30
27.74
29.00
29.47
28.66
26.45
23.15
19.28
15.38
11.74
8.38
5.07
1.55
-2.40
-6.78
-11.45
-16.12
-20.48
-24.33
-27.64
-30.72
-34.08
-38.36
-44.06
-51.29
-59.61
-67.93
-74.72
-78.29
-77.31
-71.20
-60.36
-46.12
-30.26
-14.51
-0.10
12.40
22.93
31.63
38.58
43.69
46.83
48.00
47.47
45.73
43.37
40.93
38.71
36.81
35.13
33.56
32.08
30.88
30.20
30.24
30.94
31.94
32.60
32.29
30.55
27.34
22.93
17.77
12.34
6.93
1.68
-3.42
-8.38
-13.24
-18.05
-22.88
-27.77
-32.66
-37.28
-41.21
-43.93
-45.09
-44.68
-43.10
-41.08
-39.52
-39.25
-40.86
-44.45
-49.53
-54.95
-59.07
-60.20
-57.05
-49.30
-37.67
-23.72
-9.27
4.28
16.21
26.51
35.54
43.63
50.88
57.15
62.31
66.35
69.44
71.70
73.05
73.13
71.48
67.76
62.11
55.12
47.71
40.76
34.81
29.95
25.94
22.49
19.44
16.83
14.77
13.31
12.28
11.42
10.37
8.82
6.52
3.31
-0.89
-5.98
-11.65
-17.47
-22.94
-27.71
-31.67
-34.99
-38.07
-41.39
-45.43
-50.62
-57.15
-64.92
-73.33
-81.22
-87.04
-89.16
-86.41
-78.43
-65.85
-50.16
-33.22
-16.84
-2.34
9.60
18.88
25.74
30.59
33.82
35.71
36.48
36.27
35.25
33.62
31.69
29.80
28.31
27.45
27.28
27.67
28.34
28.95
29.30
29.26
28.79
27.90
26.50
24.53
21.91
18.64
14.82
10.65
6.28
1.85
-2.55
-6.84
-10.91
-14.68
-18.17
-21.64
-25.55
-30.53
-37.05
-45.13
-54.04
-62.38
-68.34
-70.19
-66.92
-58.51
-46.03
-31.24
-16.06
-2.04
9.96
19.70
27.36
33.20
37.39
40.02
41.24
41.34
40.78
40.01
39.38
38.91
38.41
37.64
36.44
34.90
33.31
32.04
31.32
31.13
31.20
31.07
30.25
28.40
25.47
21.66
17.42
13.24
9.44
6.09
2.93
-0.41
-4.35
-9.06
-14.45
-20.15
-25.71
-30.74
-35.11
-38.99
-42.77
-46.93
-51.93
-58.00
-65.06
-72.55
-79.45
-84.32
-85.63
-82.13
-73.37
-59.89
-43.20
-25.35
-8.28
6.59
18.63
27.91
34.85
39.93
43.48
45.80
47.08
47.61
47.63
47.32
46.75
45.87
44.59
42.89
40.90
38.81
36.87
35.25
33.91
32.71
31.32
29.47
26.92
23.68
19.89
15.89
12.00
8.46
5.31
2.36
-0.61
-3.93
-7.74
-12.05
-16.69
-21.37
-25.84
-29.94
-33.65
-37.18
-40.93
-45.37
-50.90
-57.58
-64.93
-71.84
-76.74
-77.99
-74.39
-65.59
-52.32
-36.15
-19.06
-2.92
10.93
21.86
29.79
35.08
38.24
39.72
39.94
39.18
37.69
35.71
33.48
31.30
29.35
27.77
26.56
25.56
24.62
23.61
22.49
21.23
19.85
18.30
16.52
14.35
11.64
8.23
4.08
-0.66
-5.67
-10.44
-14.52
-17.68
-20.06
-22.15
-24.60
-27.97
-32.63
-38.63
-45.69
-53.18
-60.07
-65.00
-66.55
-63.61
-55.83
-43.79
-28.95
-13.17
1.81
14.78
25.20
33.05
38.59
42.15
44.02
44.52
43.99
42.87
41.56
40.39
39.50
38.84
38.24
37.54
36.65
35.66
34.73
34.02
33.53
32.98
31.97
30.06
27.01
22.91
18.18
13.42
9.20
5.74
2.89
0.13
-3.15
-7.35
-12.53
-18.29
-24.06
-29.30
-33.79
-37.72
-41.58
-46.03
-51.60
-58.51
-66.51
-74.71
-81.68
-85.68
-85.14
-79.17
-67.93
-52.65
-35.32
-18.03
-2.47
10.46
20.63
28.41
34.39
39.04
42.68
45.45
47.42
48.65
49.26
49.42
49.33
49.09
48.72
48.12
47.16
45.77
44.03
42.10
40.16
38.27
36.34
34.17
31.63
28.70
25.49
22.16
18.81
15.42
11.88
8.10
4.03
-0.35
-4.98
-9.78
-14.62
-19.27
-23.45
-26.95
-29.73
-32.00
-34.17
-36.73
-40.08
-44.48
-49.99
-56.38
-63.10
-69.15
-73.12
-73.48
-69.01
-59.28
-44.93
-27.59
-9.41
7.58
21.94
33.01
40.86
45.92
48.71
49.66
49.14
47.50
45.14
42.52
40.04
37.96
36.35
35.17
34.35
33.92
34.04
34.91
36.69
39.31
42.45
45.58
48.08
49.38
49.10
47.14
43.62
38.85
33.25
27.21
20.95
14.51
7.74
0.49
-7.27
-15.30
-23.20
-30.45
-36.71
-41.90
-46.24
-50.22
-54.36
-59.18
-64.98
-71.73
-78.89
-85.39
-89.71
-90.31
-86.05
-76.70
-63.15
-47.12
-30.72
-15.74
-3.29
6.34
13.49
18.72
22.57
25.42
27.47
28.92
29.89
30.56
31.05
31.45
31.77
32.02
32.16
32.15
32.03
31.80
31.51
31.08
30.28
28.76
26.16
22.20
16.92
10.63
3.82
-2.97
-9.40
-15.33
-20.75
-25.69
-30.10
-33.89
-36.98
-39.49
-41.76
-44.33
-47.77
-52.33
-57.78
-63.18
-67.09
-67.99
-64.76
-57.18
-46.02
-32.74
-19.03
-6.17
5.20
15.03
23.61
31.18
37.79
43.30
47.54
50.42
51.93
52.19
51.29
49.36
46.57
43.21
39.69
36.40
33.69
31.74
30.54
29.89
29.53
29.15
28.50
27.43
25.94
24.12
22.12
20.07
17.91
15.36
11.92
7.06
0.51
-7.65
-16.92
-26.44
-35.38
-43.06
-49.13
-53.64
-56.91
-59.46
-61.85
-64.46
-67.34
-69.98
-71.41
-70.46
-66.16
-58.13
-46.82
-33.34
-19.15
-5.59
6.43
16.51
24.65
31.05
35.97
39.66
42.36
44.26
45.57
46.42
46.88
47.02
46.89
46.56
46.11
45.60
45.06
44.38
43.46
42.13
40.29
37.92
35.09
31.87
28.38
24.70
20.92
17.16
13.57
10.32
7.51
5.17
3.16
1.24
-0.93
-3.67
-7.15
-11.43
-16.37
-21.76
-27.37
-32.99
-38.47
-43.76
-48.94
-54.25
-59.96
-66.16
-72.48
-77.97
-81.22
-80.74
-75.50
-65.33
-51.04
-34.26
-16.98
-0.98
12.48
22.82
30.07
34.70
37.35
38.68
39.22
39.29
39.01
38.27
36.95
34.93
32.26
29.20
26.16
23.58
21.70
20.50
19.61
18.52
16.77
14.13
10.69
6.83
2.96
-0.57
-3.64
-6.28
-8.63
-10.80
-12.81
-14.55
-15.85
-16.60
-16.79
-16.59
-16.42
-16.86
-18.61
-22.30
-28.28
-36.31
-45.51
-54.32
-60.87
-63.39
-60.81
-53.00
-40.87
-26.04
-10.29
4.86
18.41
29.91
39.19
46.20
50.84
53.04
52.84
50.60
46.93
42.65
38.54
35.16
32.77
31.33
30.62
30.37
30.43
30.73
31.27
31.98
32.67
32.98
32.47
30.75
27.65
23.30
18.12
12.61
7.19
2.00
-3.11
-8.37
-13.92
-19.61
-25.03
-29.64
-33.14
-35.56
-37.32
-39.09
-41.52
-45.10
-50.10
-56.53
-64.05
-71.86
-78.64
-82.73
-82.55
-77.15
-66.60
-52.05
-35.39
-18.58
-3.11
10.30
21.63
31.22
39.37
46.18
51.58
55.47
57.92
59.17
59.47
59.01
57.77
55.63
52.54
48.68
44.53
40.73
37.82
35.99
34.97
34.14
32.84
30.55
27.16
22.94
18.38
14.04
10.31
7.32
4.99
2.98
0.82
-1.94
-5.57
-10.04
-15.00
-19.93
-24.39
-28.26
-31.78
-35.54
-40.19
-46.20
-53.66
-62.09
-70.52
-77.43
-81.16
-80.24
-73.89
-62.41
-47.11
-30.04
-13.25
1.73
14.21
24.24
32.31
38.92
44.42
48.91
52.44
55.02
56.73
57.64
57.83
57.33
56.18
54.44
52.15
49.32
45.92
41.90
37.31
32.36
27.35
22.54
18.06
13.84
9.68
5.44
1.12
-3.15
-7.26
-11.23
-15.25
-19.56
-24.27
-29.26
-34.19
-38.68
-42.54
-45.85
-48.89
-52.10
-55.85
-60.37
-65.56
-70.90
-75.39
-77.71
-76.54
-71.07
-61.35
-48.40
-33.88
-19.55
-6.72
4.02
12.68
19.56
24.90
28.76
31.12
32.09
31.95
31.13
30.05
28.99
28.01
27.03
25.93
24.59
22.97
21.08
18.95
16.62
14.16
11.64
9.13
6.67
4.27
1.94
-0.38
-2.73
-5.15
-7.67
-10.32
-13.15
-16.24
-19.77
-23.99
-29.20
-35.65
-43.43
-52.25
-61.38
-69.56
-75.20
-76.75
-73.10
-64.03
-50.33
-33.58
-15.77
1.26
16.19
28.33
37.58
44.17
48.52
51.10
52.41
52.90
52.90
52.61
52.07
51.29
50.39
49.74
49.98
51.89
56.28
63.79
74.70
88.69
104.79
121.32
136.19
147.30
153.08
152.90
147.10
136.74
123.08
107.18
89.68
70.99
51.53
31.91
12.85
-5.05
-21.60
-37.14
-52.30
-67.75
-83.79
-100.14
-115.88
-129.57
-139.53
-144.20
-142.56
-134.48
-120.77
-103.08
-83.36
-63.43
-44.55
-27.41
-12.26
0.89
11.91
20.58
26.64
29.95
30.62
29.07
25.98
22.12
18.27
14.94
12.36
10.46
9.02
7.86
6.96
6.44
6.45
6.95
7.63
8.02
7.62
6.13
3.55
0.12
-3.86
-8.10
-12.44
-16.77
-20.99
-25.02
-28.87
-32.73
-37.01
-42.18
-48.63
-56.23
-64.26
-71.35
-75.74
-75.82
-70.60
-60.13
-45.51
-28.61
-11.53
3.97
16.88
26.94
34.43
39.83
43.51
45.64
46.27
45.52
43.62
41.00
38.12
35.35
32.82
30.51
28.29
26.11
24.06
22.37
21.20
20.54
20.06
19.16
17.20
13.78
8.91
3.09
-2.92
-8.34
-12.72
-16.02
-18.64
-21.24
-24.53
-29.10
-35.14
-42.36
-49.87
-56.28
-60.02
-59.76
-54.83
-45.47
-32.74
-18.20
-3.49
10.12
21.76
30.99
37.54
41.20
41.83
39.52
34.76
28.56
22.16
16.76
13.05
11.08
10.32
10.00
9.58
8.94
8.33
8.16
8.57
9.29
9.72
9.20
7.32
4.09
-0.10
-4.70
-9.21
-13.37
-17.23
-21.02
-25.13
-29.92
-35.65
-42.43
-50.01
-57.78
-64.66
-69.27
-70.26
-66.62
-58.14
-45.49
-30.14
-13.89
1.56
15.10
26.26
35.10
41.95
47.07
50.55
52.40
52.62
51.37
49.03
46.06
42.85
39.73
36.83
34.26
32.12
30.49
29.46
28.89
28.49
27.77
26.27
23.69
20.10
15.83
11.32
6.92
2.73
-1.41
-5.79
-10.59
-15.82
-21.21
-26.35
-30.90
-34.73
-38.00
-41.15
-44.75
-49.35
-55.28
-62.48
-70.35
-77.66
-82.75
-83.83
-79.62
-69.77
-55.13
-37.54
-19.31
-2.44
11.84
23.24
32.16
39.24
44.94
49.43
52.62
54.42
54.86
54.22
52.89
51.24
49.50
47.74
45.95
44.14
42.44
41.06
40.15
39.63
39.16
38.19
36.26
33.17
29.11
24.56
20.09
16.12
12.73
9.75
6.83
3.58
-0.28
-4.85
-10.10
-15.77
-21.49
-26.90
-31.74
-36.03
-40.07
-44.37
-49.55
-56.02
-63.84
-72.46
-80.79
-87.25
-90.16
-88.16
-80.64
-68.02
-51.68
-33.59
-15.80
0.16
13.47
24.05
32.28
38.57
43.18
46.15
47.47
47.22
45.76
43.62
41.37
39.39
37.78
36.45
35.22
34.03
32.93
32.05
31.40
30.86
30.09
28.70
26.43
23.24
19.34
15.14
10.99
7.05
3.30
-0.48
-4.50
-8.77
-13.12
-17.31
-21.11
-24.60
-28.11
-32.18
-37.37
-43.99
-51.90
-60.43
-68.35
-74.13
-76.26
-73.61
-65.87
-53.63
-38.29
-21.67
-5.51
8.89
20.90
30.45
37.77
43.16
46.85
48.97
49.65
49.06
47.48
45.29
42.80
40.31
37.97
35.87
34.10
32.76
31.90
31.50
31.37
31.12
30.31
28.58
25.76
22.05
17.85
13.67
9.83
6.42
3.27
0.05
-3.54
-7.66
-12.33
-17.36
-22.47
-27.38
-31.88
-35.99
-39.95
-44.23
-49.36
-55.76
-63.47
-72.00
-80.24
-86.65
-89.48
-87.27
-79.33
-66.02
-48.75
-29.68
-11.02
5.48
18.95
29.36
37.22
43.19
47.71
50.98
52.98
53.69
53.22
51.82
49.78
47.37
44.82
42.28
39.92
37.89
36.30
35.19
34.49
34.04
33.60
32.92
31.75
29.87
27.11
23.45
19.03
14.15
9.26
4.73
0.79
-2.60
-5.76
-9.07
-12.86
-17.22
-22.00
-26.89
-31.58
-35.83
-39.55
-42.81
-45.82
-48.95
-52.68
-57.48
-63.53
-70.48
-77.26
-82.29
-83.77
-80.31
-71.43
-57.69
-40.61
-22.19
-4.37
11.31
24.02
33.52
40.00
43.91
45.75
46.06
45.38
44.22
43.05
42.19
41.72
41.44
41.02
40.13
38.63
36.70
34.72
33.09
32.03
31.43
30.91
29.94
28.03
24.89
20.46
15.01
9.03
3.15
-2.03
-6.15
-9.27
-11.81
-14.41
-17.59
-21.51
-25.88
-30.17
-33.87
-36.83
-39.34
-42.02
-45.55
-50.39
-56.60
-63.75
-70.93
-76.90
-80.30
-79.90
-74.93
-65.32
-51.76
-35.61
-18.55
-2.28
11.89
23.18
31.43
36.96
40.43
42.60
44.11
45.37
46.48
47.34
47.71
47.39
46.23
44.16
41.24
37.57
33.39
29.08
25.05
21.66
19.06
17.10
15.37
13.40
10.83
7.50
3.45
-1.11
-6.03
-11.16
-16.40
-21.59
-26.54
-31.05
-35.04
-38.65
-42.25
-46.35
-51.46
-57.70
-64.74
-71.52
-76.52
-78.06
-74.89
-66.58
-53.73
-37.81
-20.71
-4.24
10.31
22.25
31.46
38.13
42.55
45.03
45.87
45.46
44.23
42.67
41.13
39.77
38.51
37.12
35.41
33.36
31.18
29.20
27.68
26.66
25.94
25.13
23.86
21.95
19.39
16.37
13.12
9.84
6.54
3.17
-0.47
-4.57
-9.22
-14.39
-19.85
-25.24
-30.25
-34.75
-38.95
-43.36
-48.62
-55.25
-63.27
-72.04
-80.23
-86.07
-87.78
-84.07
-74.56
-59.96
-41.90
-22.53
-3.92
12.36
25.55
35.60
42.91
47.94
51.10
52.62
52.73
51.72
49.95
47.79
45.45
42.97
40.28
37.35
34.30
31.45
29.19
27.78
27.17
26.95
26.53
25.35
23.10
19.80
15.75
11.27
6.62
1.87
-3.05
-8.16
-13.46
-18.74
-23.76
-28.31
-32.39
-36.24
-40.31
-45.16
-51.19
-58.46
-66.42
-73.93
-79.38
-81.21
-78.25
-70.21
-57.72
-42.20
-25.43
-9.14
5.38
17.40
26.71
33.45
37.88
40.28
40.86
39.87
37.74
35.07
32.58
30.82
30.02
29.97
30.14
29.97
29.15
27.71
25.97
24.23
22.55
20.70
18.21
14.74
10.15
4.68
-1.16
-6.79
-11.73
-15.73
-18.84
-21.48
-24.23
-27.79
-32.75
-39.40
-47.53
-56.33
-64.40
-70.02
-71.50
-67.68
-58.38
-44.49
-27.76
-10.33
5.90
19.65
30.44
38.43
44.07
47.85
50.10
51.10
51.07
50.24
48.95
47.48
46.07
44.84
43.68
42.39
40.70
38.40
35.45
31.98
28.14
24.13
20.02
15.82
11.45
6.81
1.81
-3.60
-9.43
-15.51
-21.48
-26.89
-31.37
-34.89
-37.79
-40.75
-44.57
-49.82
-56.71
-64.93
-73.58
-81.31
-86.42
-87.25
-82.66
-72.44
-57.49
-39.64
-21.08
-3.78
11.01
22.89
32.09
39.12
44.48
48.46
51.23
52.92
53.64
53.57
52.83
51.54
49.75
47.57
45.15
42.71
40.48
38.61
37.13
35.89
34.69
33.24
31.30
28.62
25.02
20.41
14.86
8.63
2.18
-3.99
-9.51
-14.20
-18.26
-22.10
-26.29
-31.34
-37.61
-45.20
-53.87
-62.91
-71.18
-77.16
-79.32
-76.58
-68.72
-56.51
-41.61
-26.02
-11.56
0.61
10.12
17.19
22.33
25.98
28.37
29.53
29.53
28.54
26.97
25.29
23.93
23.14
22.92
23.13
23.60
24.14
24.66
25.02
24.98
24.23
22.40
19.25
14.75
9.16
2.95
-3.35
-9.35
-15.00
-20.53
-26.43
-33.19
-41.03
-49.71
-58.45
-66.06
-71.12
-72.35
-68.92
-60.76
-48.61
-33.89
-18.35
-3.62
9.16
19.44
27.24
32.83
36.52
38.53
39.00
38.07
36.04
33.29
30.32
27.57
25.30
23.62
22.52
21.87
21.56
21.41
21.18
20.58
19.26
17.00
13.75
9.76
5.42
1.22
-2.58
-6.04
-9.58
-13.86
-19.54
-26.91
-35.68
-44.82
-52.75
-57.63
-57.94
-52.92
-42.88
-29.07
-13.37
2.23
16.18
27.63
36.40
42.85
47.45
50.57
52.36
52.70
51.45
48.54
44.18
38.80
33.02
27.47
22.55
18.46
15.14
12.37
9.89
7.43
4.82
1.91
-1.31
-4.76
-8.24
-11.57
-14.70
-17.77
-21.04
-24.78
-29.03
-33.48
-37.51
-40.30
-41.05
-39.13
-34.19
-26.22
-15.66
-3.26
9.99
23.16
35.60
47.06
57.59
67.37
76.47
84.73
91.79
97.26
100.86
102.50
102.25
100.30
96.90
92.31
86.84
80.78
74.38
67.79
61.08
54.25
47.23
39.97
32.37
24.25
15.38
5.56
-5.26
-16.97
-29.26
-41.81
-54.37
-66.86
-79.14
-90.74
-100.74
-107.74
-110.30
-107.37
-98.70
-84.88
-67.20
-47.24
-26.55
-6.46
12.02
28.10
41.29
51.35
58.33
62.49
64.24
64.04
62.36
59.58
56.06
52.02
47.64
43.05
38.43
33.98
29.97
26.57
23.78
21.30
18.59
15.03
10.14
3.84
-3.56
-11.44
-19.21
-26.56
-33.57
-40.69
-48.59
-57.91
-69.09
-82.23
-96.88
-112.04
-126.20
-137.72
-145.27
-148.30
-147.18
-143.04
-137.24
-130.85
-124.44
-118.00
-111.35
-104.36
-97.11
-89.87
-82.81
-75.84
-68.50
-60.05
-49.70
-36.95
-21.83
-4.92
12.93
31.12
49.88
70.39
94.37
123.18
156.71
192.74
227.09
254.56
270.35
271.45
257.42
230.51
195.10
156.70
120.66
90.89
68.88
53.38
41.01
27.67
10.34
-11.65
-36.36
-60.09
-78.93
-90.14
-92.79
-87.67
-76.62
-61.93
-45.87
-30.43
-17.00
-5.87
3.96
14.66
28.58
47.12
69.67
93.58
114.91
129.82
135.69
131.84
119.36
100.55
78.10
54.54
31.80
11.12
-6.88
-22.03
-34.42
-44.16
-51.33
-55.91
-57.88
-57.07
-53.21
-45.89
-34.87
-20.44
-3.80
12.90
27.01
36.00
38.21
33.20
21.78
5.67
-12.75
-30.80
-45.79
-55.46
-58.49
-54.96
-46.26
-34.76
-22.94
-12.59
-4.25
2.57
8.72
14.69
20.26
24.71
27.31
27.67
26.30
24.48
23.81
25.38
29.28
34.59
39.91
43.89
45.33
44.12
41.22
38.23
36.62
36.83
38.15
39.01
37.28
30.10
15.38
-7.73
-38.64
-75.51
-115.60
-155.18
-189.49
-213.80
-225.64
-224.68
-212.96
-194.27
-172.59
-150.83
-129.40
-105.90
-72.46
-26.06
29.44
84.03
127.19
155.66
172.04
180.52
185.37
189.89
192.85
193.76
192.78
189.63
184.14
175.54
162.35
142.84
115.49
79.65
37.80
-4.92
-44.15
-76.45
-100.23
-115.51
-123.48
-126.37
-127.22
-128.61
-132.67
-143.78
-165.63
-199.62
-243.82
-293.45
-342.50
-385.18
-416.41
-416.13
-373.63
-293.39
-195.08
-102.69
-33.39
6.49
19.74
15.13
1.52
-14.56
-29.41
-41.24
-49.25
-53.61
-55.41
-56.07
-56.63
-55.83
-55.07
-55.74
-57.92
-60.17
-60.39
-56.91
-48.95
-36.60
-20.74
-4.16
10.35
21.13
28.23
33.09
37.69
43.89
52.90
65.16
79.71
95.50
112.15
130.28
150.89
174.56
200.83
228.07
253.79
274.88
288.57
293.02
287.60
272.78
249.85
220.57
186.86
150.54
113.16
75.92
39.82
5.66
-25.82
-54.07
-78.76
-99.88
-117.82
-133.31
-147.27
-160.60
-173.93
-187.48
-200.97
-213.81
-225.33
-235.17
-243.34
-250.30
-256.64
-262.82
-268.82
-273.98
-277.02
-276.19
-269.49
-255.07
-231.55
-198.38
-156.09
-106.16
-50.75
7.76
67.16
125.47
180.78
231.05
274.17
308.25
332.17
345.96
350.67
347.94
339.39
326.17
309.05
288.66
265.90
242.10
218.70
196.91
177.31
159.76
143.63
128.23
113.23
98.83
85.73
74.65
65.95
59.32
53.72
47.79
40.41
31.44
22.01
14.42
11.41
15.04
25.77
41.98
60.28
76.48
86.93
89.66
84.89
74.85
62.84
52.04
44.51
40.80
40.27
41.86
44.94
49.84
57.75
70.06
87.44
109.22
133.16
156.02
174.46
186.05
189.85
186.46
177.50
164.94
150.41
134.89
118.90
102.80
87.12
72.48
59.34
47.52
36.10
23.74
9.30
-7.47
-25.70
-43.76
-60.00
-73.57
-84.72
-94.57
-104.33
-114.60
-125.02
-134.41
-141.36
-144.91
-145.01
-142.50
-138.82
-135.43
-133.38
-132.91
-133.59
-134.60
-135.19
-134.94
-133.82
-131.96
-129.45
-126.43
-123.27
-120.76
-119.95
-121.63
-125.74
-131.06
-135.58
-137.32
-135.24
-129.59
-121.70
-113.26
-105.76
-100.17
-97.17
-97.28
-100.82
-107.65
-116.78
-126.49
-134.69
-139.58
-140.20
-136.60
-129.59
-120.38
-110.20
-100.07
-90.69
-82.38
-75.07
-68.39
-61.76
-54.68
-46.90
-38.52
-29.98
-21.83
-14.50
-8.22
-2.91
1.68
6.01
10.61
16.07
22.96
31.66
42.16
53.98
66.24
77.90
88.01
96.02
101.75
105.25
106.65
106.00
103.51
99.52
94.66
89.63
85.05
81.21
78.07
75.31
72.54
69.34
65.44
60.64
54.87
48.18
40.70
32.54
23.79
14.60
5.32
-3.34
-10.32
-14.52
-15.05
-11.56
-4.24
6.29
19.13
33.23
47.44
60.53
71.42
79.36
84.25
86.66
87.64
88.30
89.31
90.69
91.76
91.38
88.25
81.26
69.76
53.81
34.17
12.16
-10.72
-33.31
-55.05
-76.10
-97.07
-118.48
-140.42
-162.38
-183.42
-202.38
-218.27
-230.40
-238.44
-242.43
-242.68
-239.69
-233.91
-225.57
-214.60
-200.65
-183.29
-162.25
-137.64
-109.91
-79.85
-48.33
-16.28
15.48
46.10
74.81
100.86
123.53
142.20
156.35
165.69
170.31
170.71
167.77
162.56
156.14
149.38
142.84
136.76
131.10
125.67
120.28
114.78
109.19
103.68
98.47
93.71
89.22
84.50
78.68
70.66
59.44
44.41
25.62
3.94
-18.98
-40.89
-59.34
-72.14
-77.85
-76.17
-67.94
-55.02
-39.86
-25.11
-13.28
-6.42
-5.80
-11.50
-21.91
-33.76
-42.79
-45.05
-38.43
-23.58
-3.62
17.32
35.92
51.01
63.62
75.89
89.45
104.36
119.09
131.48
139.88
143.95
144.48
142.68
139.42
134.74
128.19
119.40
108.66
97.17
86.61
78.56
73.82
72.09
72.12
72.27
71.02
67.54
61.71
53.98
45.08
35.75
26.61
18.15
10.65
4.14
-1.64
-7.27
-13.49
-20.97
-30.05
-40.67
-52.43
-64.84
-77.48
-90.10
-102.46
-114.10
-124.30
-132.16
-136.95
-138.35
-136.70
-132.78
-127.60
-122.01
-116.53
-111.35
-106.48
-101.87
-97.51
-93.44
-89.71
-86.47
-83.90
-82.25
-81.76
-82.57
-84.68
-87.88
-91.78
-95.80
-99.11
-100.63
-99.26
-94.14
-85.03
-72.52
-57.84
-42.54
-27.93
-14.74
-3.15
6.97
15.65
22.64
27.46
29.68
29.29
26.80
23.07
18.94
15.01
11.41
7.97
4.52
1.04
-2.26
-5.16
-7.65
-10.09
-13.09
-17.28
-22.96
-29.93
-37.58
-45.21
-52.30
-58.75
-64.94
-71.45
-78.83
-87.25
-96.37
-105.30
-112.79
-117.49
-118.37
-114.96
-107.47
-96.76
-84.04
-70.58
-57.36
-45.03
-33.81
-23.64
-14.33
-5.73
2.20
9.42
15.86
21.51
26.52
31.14
35.66
40.17
44.49
48.19
50.74
51.69
50.80
48.12
43.82
38.13
31.22
23.28
14.53
5.32
-4.04
-13.29
-22.42
-31.62
-41.24
-51.53
-62.37
-73.11
-82.53
-89.09
-91.34
-88.43
-80.47
-68.55
-54.44
-40.05
-26.87
-15.64
-6.47
0.94
6.90
11.53
14.84
16.88
18.01
18.86
20.15
22.40
25.70
29.65
33.64
36.99
39.30
40.41
40.43
39.52
37.84
35.52
32.60
29.10
24.93
20.01
14.24
7.72
0.73
-6.25
-12.72
-18.44
-23.56
-28.64
-34.42
-41.51
-50.11
-59.98
-70.47
-80.80
-90.13
-97.57
-102.02
-102.32
-97.56
-87.56
-73.31
-56.68
-39.66
-23.18
-6.51
12.56
36.60
67.06
103.45
143.43
183.93
222.29
256.95
287.33
313.09
333.49
347.29
353.29
350.96
340.97
324.90
304.80
282.69
260.10
237.91
216.34
195.20
173.99
152.13
128.79
102.97
73.73
40.58
3.87
-34.78
-72.02
-103.91
-126.72
-138.63
-140.37
-134.90
-126.30
-118.55
-114.64
-115.78
-122.42
-132.94
-144.39
-153.79
-159.26
-159.53
-153.15
-138.36
-113.42
-80.02
-40.85
-1.48
30.98
50.39
54.10
43.95
21.92
-3.76
-24.42
-34.70
-34.77
-28.29
-19.14
-9.22
1.54
13.39
26.90
39.39
47.17
47.39
39.71
26.43
11.38
-2.05
-12.37
-19.72
-25.89
-32.32
-38.94
-43.61
-43.49
-36.79
-23.88
-7.00
11.40
29.37
46.28
62.17
76.62
88.03
94.10
93.00
84.63
71.12
55.60
40.91
28.42
17.88
8.14
-1.64
-11.30
-19.64
-25.17
-27.16
-26.00
-23.04
-19.86
-17.57
-16.46
-16.19
-16.29
-16.64
-17.53
-19.41
-22.43
-26.17
-29.73
-32.13
-32.69
-31.30
-28.39
-24.59
-20.39
-16.01
-11.35
-6.27
-0.84
4.59
9.54
13.60
16.62
18.65
19.84
20.16
19.40
17.36
14.08
10.05
6.14
3.33
2.20
2.72
4.28
6.09
7.54
8.51
9.20
9.93
10.83
11.74
12.33
12.21
11.11
8.83
5.24
0.18
-6.45
-14.50
-23.47
-32.36
-39.90
-44.72
-45.83
-42.83
-35.97
-25.95
-13.57
0.55
16.08
32.70
49.71
65.90
79.64
89.49
94.78
96.02
94.73
92.87
91.97
92.63
94.49
96.64
98.38
99.62
100.85
102.69
105.35
108.31
110.48
110.75
108.41
103.49
96.60
88.49
79.69
70.24
59.74
47.65
33.54
17.22
-1.08
-20.84
-41.26
-61.27
-79.62
-95.00
-106.21
-112.56
-114.11
-111.76
-107.08
-101.67
-96.55
-91.71
-86.26
-79.05
-69.50
-58.07
-46.13
-35.31
-26.75
-20.59
-16.23
-12.82
-9.86
-7.46
-6.13
-6.32
-8.04
-10.74
-13.55
-15.72
-17.01
-17.80
-18.90
-21.27
-25.60
-32.17
-40.78
-50.90
-61.77
-72.57
-82.54
-90.97
-97.34
-101.33
-102.79
-101.72
-98.08
-91.60
-81.93
-68.79
-52.30
-33.28
-13.21
6.03
22.63
35.28
43.42
47.13
46.94
43.57
37.77
30.35
22.24
14.37
7.57
2.36
-1.25
-3.71
-5.73
-8.09
-11.25
-15.23
-19.62
-23.80
-27.19
-29.56
-31.09
-32.25
-33.56
-35.22
-36.97
-38.08
-37.67
-35.04
-30.01
-23.15
-15.65
-9.01
-4.50
-2.62
-2.78
-3.50
-2.97
0.12
6.00
13.67
21.29
26.95
29.25
27.54
21.78
12.13
-1.28
-18.34
-38.77
-61.92
-86.72
-111.87
-136.14
-158.55
-178.36
-195.02
-207.98
-216.68
-220.67
-219.81
-214.48
-205.56
-194.37
-182.25
-170.20
-158.56
-147.03
-134.93
-121.67
-107.17
-91.94
-76.86
-62.70
-49.74
-37.61
-25.23
-11.00
7.08
30.98
61.94
99.60
141.50
183.17
219.32
245.44
259.32
261.51
254.67
242.18
226.69
209.52
190.99
171.15
150.51
130.08
111.09
94.37
80.16
68.21
58.06
49.35
41.84
35.22
28.99
22.45
15.12
7.13
-0.41
-5.60
-6.22
-0.53
12.06
30.72
53.33
76.98
98.57
115.47
126.09
130.17
128.92
124.79
120.75
119.51
122.70
130.47
141.48
153.35
163.17
168.02
165.38
153.51
131.76
100.90
63.19
22.05
-18.60
-55.25
-85.42
-108.02
-123.16
-131.75
-135.03
-134.33
-130.95
-126.18
-121.22
-117.06
-114.25
-112.89
-112.61
-112.80
-112.82
-112.22
-110.83
-108.76
-106.33
-103.97
-102.18
-101.28
-101.34
-102.00
-102.48
-101.69
-98.57
-92.37
-83.00
-70.96
-57.28
-43.10
-29.38
-16.70
-5.34
4.64
13.15
19.97
24.81
27.50
28.15
27.23
25.50
23.79
22.69
22.40
22.72
23.21
23.42
23.13
22.32
21.13
19.65
17.82
15.48
12.46
8.72
4.33
-0.54
-5.78
-11.40
-17.52
-24.15
-31.00
-37.36
-42.12
-44.08
-42.34
-36.65
-27.59
-16.34
-4.41
6.88
16.73
24.89
31.49
36.76
40.82
43.58
44.91
44.77
43.36
41.03
38.27
35.49
32.94
30.75
28.93
27.45
26.20
25.02
23.65
21.82
19.33
16.12
12.28
8.07
3.72
-0.58
-4.77
-8.99
-13.47
-18.55
-24.41
-31.03
-37.92
-44.15
-48.46
-49.64
-46.89
-40.16
-30.20
-18.31
-5.99
5.48
15.30
23.12
28.97
33.09
35.70
37.04
37.28
36.52
34.92
32.64
29.97
27.30
24.96
23.20
22.02
21.20
20.36
19.19
17.48
15.14
12.16
8.53
4.20
-0.85
-6.60
-12.96
-19.85
-27.20
-34.94
-42.75
-50.02
-55.77
-58.88
-58.41
-53.98
-45.89
-35.09
-22.85
-10.40
1.28
11.60
20.28
27.18
32.24
35.38
36.62
36.09
34.11
31.13
27.69
24.34
21.47
19.31
17.86
16.95
16.32
15.72
14.90
13.69
11.96
9.65
6.68
3.11
-0.97
-5.42
-10.12
-15.13
-20.63
-26.88
-33.98
-41.61
-48.95
-54.77
-57.68
-56.58
-51.01
-41.23
-28.25
-13.45
1.64
15.77
27.98
37.79
45.03
49.86
52.61
53.72
53.64
52.71
51.23
49.34
47.06
44.41
41.44
38.25
35.01
31.93
29.13
26.59
24.16
21.53
18.42
14.60
10.05
4.92
-0.45
-5.74
-10.69
-15.26
-19.69
-24.34
-29.68
-35.95
-43.05
-50.27
-56.38
-59.89
-59.52
-54.64
-45.55
-33.40
-19.81
-6.39
5.71
15.92
24.18
30.65
35.56
39.10
41.41
42.59
42.57
41.13
37.93
32.77
25.88
18.09
10.77
5.35
2.88
3.72
7.49
13.40
20.66
28.68
37.08
45.55
53.62
60.76
66.58
71.05
74.48
77.32
79.72
81.29
81.01
77.60
70.01
58.01
42.41
24.99
7.93
-6.91
-18.59
-27.27
-33.97
-39.89
-45.81
-51.71
-56.89
-60.46
-61.89
-61.32
-59.39
-56.79
-53.81
-50.22
-45.56
-39.52
-32.22
-24.20
-16.03
-8.08
-0.34
7.27
14.61
21.03
25.55
27.27
25.78
21.45
15.33
8.70
2.65
-2.19
-5.75
-8.31
-10.27
-12.05
-13.99
-16.38
-19.44
-23.10
-26.93
-29.97
-30.96
-28.74
-22.81
-13.61
-2.51
8.61
18.06
24.84
28.85
30.66
31.02
30.46
29.12
26.88
23.60
19.47
14.95
10.64
7.05
4.36
2.42
0.81
-0.95
-3.23
-6.16
-9.68
-13.53
-17.44
-21.20
-24.73
-28.09
-31.48
-35.09
-39.12
-43.65
-48.66
-54.00
-59.27
-63.81
-66.63
-66.59
-62.75
-54.66
-42.68
-27.90
-11.87
3.80
17.90
29.73
39.12
46.20
51.26
54.59
56.41
56.95
56.36
54.83
52.57
49.83
46.90
44.10
41.68
39.74
38.17
36.74
35.13
33.06
30.37
26.99
22.92
18.22
12.99
7.37
1.53
-4.31
-10.04
-15.67
-21.36
-27.32
-33.56
-39.73
-45.00
-48.23
-48.31
-44.59
-37.20
-27.03
-15.53
-4.18
5.86
13.99
20.14
24.58
27.65
29.59
30.55
30.61
29.94
28.76
27.42
26.24
25.42
24.96
24.63
24.17
23.34
22.11
20.64
19.15
17.69
16.06
13.90
10.87
6.95
2.38
-2.33
-6.74
-10.65
-14.18
-17.65
-21.38
-25.63
-30.48
-35.92
-41.71
-47.34
-51.84
-54.00
-52.68
-47.23
-37.89
-25.71
-12.27
0.91
12.73
22.67
30.64
36.76
41.18
43.99
45.29
45.32
44.38
42.79
40.83
38.64
36.27
33.79
31.33
29.04
27.02
25.27
23.62
21.79
19.50
16.59
13.09
9.25
5.43
1.99
-0.90
-3.30
-5.55
-8.20
-11.90
-17.17
-24.19
-32.61
-41.50
-49.44
-54.87
-56.50
-53.65
-46.54
-36.16
-24.04
-11.75
-0.61
8.60
15.61
20.50
23.53
24.93
24.91
23.69
21.54
18.85
16.14
13.93
12.66
12.59
13.69
15.77
18.47
21.44
24.34
26.90
28.87
30.01
30.12
29.04
26.72
23.21
18.54
12.69
5.40
-3.68
-14.82
-27.91
-42.17
-56.19
-68.17
-76.35
-79.65
-77.90
-71.90
-63.04
-52.86
-42.58
-32.98
-24.43
-17.03
-10.84
-5.88
-2.11
0.61
2.53
3.92
5.02
5.99
6.92
7.85
8.85
9.96
11.13
12.18
12.82
12.71
11.62
9.53
6.70
3.62
0.80
-1.39
-2.91
-4.02
-5.25
-7.09
-9.93
-13.79
-18.37
-23.03
-26.96
-29.40
-29.90
-28.51
-25.86
-22.90
-20.57
-19.42
-19.37
-19.84
-20.07
-19.49
-17.95
-15.68
-13.07
-10.52
-8.24
-6.32
-4.84
-3.89
-3.50
-3.56
-3.79
-3.75
-2.95
-1.05
2.04
6.08
10.55
14.72
17.99
20.00
20.83
20.91
20.86
21.19
22.05
23.18
23.99
23.76
21.89
18.04
12.32
5.27
-2.09
-8.46
-12.47
-13.18
-10.32
-4.46
3.19
11.14
18.07
23.17
26.23
27.45
27.28
26.23
24.70
23.05
21.55
20.40
19.65
19.18
18.72
17.96
16.69
14.94
12.94
11.07
9.63
8.70
8.06
7.35
6.18
4.30
1.71
-1.41
-4.75
-7.97
-10.77
-12.99
-14.59
-15.80
-17.05
-18.86
-21.68
-25.66
-30.42
-35.11
-38.53
-39.50
-37.20
-31.55
-23.16
-13.24
-3.18
5.83
13.09
18.38
21.87
23.84
24.53
24.09
22.69
20.58
18.17
15.86
13.97
12.57
11.51
10.49
9.27
7.81
6.19
4.58
3.06
1.55
-0.15
-2.26
-4.88
-7.95
-11.28
-14.59
-17.66
-20.39
-22.72
-24.77
-26.73
-28.86
-31.45
-34.64
-38.36
-42.18
-45.39
-47.06
-46.38
-42.84
-36.44
-27.76
-17.77
-7.63
1.64
9.35
15.27
19.47
22.16
23.50
23.63
22.68
20.91
18.78
16.79
15.35
14.65
14.57
14.83
15.08
15.14
14.98
14.71
14.45
14.19
13.76
12.87
11.24
8.72
5.35
1.39
-2.80
-6.86
-10.54
-13.81
-16.80
-19.83
-23.25
-27.35
-32.24
-37.69
-43.07
-47.37
-49.44
-48.30
-43.50
-35.25
-24.50
-12.57
-0.88
9.48
17.88
24.19
28.55
31.29
32.68
32.92
32.19
30.66
28.57
26.22
23.90
21.83
20.11
18.69
17.47
16.33
15.20
14.10
13.08
12.20
11.35
10.36
8.92
6.74
3.73
-0.02
-4.19
-8.37
-12.21
-15.56
-18.48
-21.21
-24.00
-27.11
-30.75
-35.04
-39.98
-45.36
-50.60
-54.72
-56.55
-55.02
-49.58
-40.45
-28.66
-15.67
-3.04
8.02
16.86
23.36
27.83
30.69
32.39
33.22
33.39
33.06
32.31
31.23
29.95
28.56
27.17
25.81
24.48
23.13
21.73
20.25
18.70
17.10
15.45
13.73
11.84
9.70
7.19
4.27
0.97
-2.58
-6.25
-9.87
-13.33
-16.63
-19.82
-23.06
-26.55
-30.46
-34.95
-40.04
-45.55
-50.99
-55.51
-58.02
-57.53
-53.42
-45.71
-35.18
-23.04
-10.66
0.85
10.82
19.04
25.54
30.44
33.82
35.72
36.24
35.56
33.98
31.90
29.69
27.67
26.00
24.67
23.48
22.22
20.74
19.09
17.45
16.07
15.02
14.13
13.02
11.24
8.57
5.07
1.12
-2.84
-6.49
-9.75
-12.79
-15.87
-19.22
-22.96
-27.14
-31.80
-36.90
-42.24
-47.29
-51.14
-52.75
-51.13
-45.83
-37.09
-25.85
-13.48
-1.39
9.34
18.06
24.67
29.31
32.26
33.78
34.08
33.39
31.96
30.14
28.31
26.75
25.61
24.90
24.51
24.32
24.20
24.08
23.89
23.49
22.75
21.51
19.68
17.29
14.44
11.26
7.86
4.30
0.62
-3.14
-6.92
-10.63
-14.25
-17.80
-21.35
-25.04
-29.04
-33.51
-38.53
-43.98
-49.35
-53.79
-56.20
-55.60
-51.42
-43.83
-33.64
-22.06
-10.32
0.69
10.43
18.70
25.47
30.74
34.58
37.12
38.59
39.25
39.32
38.96
38.26
37.23
35.91
34.33
32.58
30.81
29.16
27.72
26.50
25.36
24.06
22.37
20.21
17.68
15.03
12.49
10.15
7.88
5.44
2.56
-0.89
-4.83
-9.07
-13.39
-17.53
-21.40
-25.07
-28.80
-33.00
-38.12
-44.38
-51.51
-58.65
-64.48
-67.53
-66.71
-61.59
-52.61
-40.85
-27.66
-14.34
-1.91
9.04
18.16
25.40
30.87
34.75
37.34
38.96
39.86
40.24
40.16
39.66
38.73
37.42
35.81
34.03
32.21
30.51
29.06
27.96
27.20
26.61
25.92
24.78
22.92
20.28
17.01
13.49
10.06
6.93
4.03
1.11
-2.15
-5.93
-10.22
-14.79
-19.31
-23.51
-27.28
-30.66
-33.89
-37.36
-41.40
-46.20
-51.49
-56.56
-60.25
-61.31
-58.78
-52.39
-42.70
-30.88
-18.47
-6.79
3.26
11.29
17.36
21.72
24.61
26.26
26.83
26.51
25.56
24.28
23.01
21.97
21.29
20.90
20.67
20.46
20.16
19.78
19.38
19.01
18.63
18.10
17.17
15.58
13.22
10.11
6.48
2.63
-1.09
-4.40
-7.17
-9.40
-11.24
-12.95
-14.84
-17.24
-20.41
-24.51
-29.48
-34.94
-40.12
-43.97
-45.30
-43.24
-37.51
-28.61
-17.70
-6.23
4.51
13.71
21.06
26.63
30.63
33.23
34.58
34.86
34.30
33.16
31.67
30.02
28.28
26.50
24.67
22.82
20.97
19.17
17.47
15.96
14.69
13.65
12.72
11.74
10.53
8.96
6.98
4.60
1.82
-1.35
-4.87
-8.67
-12.64
-16.65
-20.55
-24.35
-28.06
-31.84
-35.86
-40.34
-45.40
-50.97
-56.57
-61.30
-63.96
-63.38
-58.81
-50.36
-38.88
-25.81
-12.67
-0.66
9.57
17.88
24.45
29.52
33.30
35.91
37.44
38.00
37.78
37.02
35.92
34.65
33.29
31.85
30.33
28.81
27.38
26.19
25.32
24.76
24.31
23.69
22.61
20.93
18.68
16.11
13.54
11.23
9.26
7.48
5.60
3.26
0.21
-3.62
-8.08
-12.92
-17.82
-22.53
-27.02
-31.42
-36.03
-41.21
-47.12
-53.53
-59.76
-64.71
-67.16
-66.13
-61.19
-52.67
-41.53
-29.10
-16.73
-5.48
4.05
11.68
17.53
21.87
24.99
27.10
28.35
28.83
28.62
27.87
26.79
25.62
24.59
23.86
23.46
23.31
23.28
23.24
23.09
22.75
22.12
21.07
19.41
17.09
14.11
10.66
6.97
3.25
-0.41
-4.03
-7.63
-11.20
-14.69
-18.03
-21.25
-24.56
-28.30
-32.81
-38.22
-44.27
-50.27
-55.15
-57.73
-57.00
-52.53
-44.56
-33.99
-22.17
-10.44
0.17
9.05
16.08
21.39
25.23
27.74
29.06
29.26
28.51
27.08
25.29
23.50
21.94
20.74
19.89
19.26
18.74
18.24
17.78
17.36
16.91
16.28
15.21
13.47
10.94
7.66
3.83
-0.28
-4.41
-8.41
-12.13
-15.51
-18.58
-21.45
-24.43
-27.95
-32.38
-37.88
-44.14
-50.35
-55.31
-57.75
-56.68
-51.71
-43.19
-32.08
-19.71
-7.46
3.62
12.89
20.22
25.77
29.82
32.65
34.42
35.26
35.28
34.65
33.57
32.28
30.97
29.79
28.83
28.13
27.65
27.31
26.95
26.40
25.55
24.37
22.91
21.19
19.21
16.86
14.02
10.66
6.83
2.73
-1.42
-5.41
-9.12
-12.52
-15.74
-18.97
-22.47
-26.56
-31.52
-37.43
-44.10
-50.84
-56.62
-60.14
-60.25
-56.35
-48.56
-37.79
-25.40
-12.82
-1.15
9.01
17.49
24.39
29.84
33.95
36.80
38.52
39.37
39.63
39.53
39.21
38.64
37.74
36.52
35.08
33.69
32.61
31.99
31.76
31.57
30.98
29.60
27.32
24.32
21.03
17.86
15.01
12.42
9.77
6.78
3.27
-0.68
-4.81
-8.85
-12.61
-16.10
-19.50
-23.09
-27.19
-32.09
-37.87
-44.35
-50.88
-56.43
-59.71
-59.56
-55.33
-47.14
-35.93
-23.24
-10.68
0.40
9.27
15.86
20.49
23.66
25.72
26.85
27.10
26.52
25.31
23.83
22.49
21.61
21.32
21.51
21.97
22.44
22.78
22.88
22.71
22.24
21.42
20.19
18.47
16.28
13.63
10.58
7.21
3.65
0.08
-3.30
-6.31
-8.92
-11.27
-13.61
-16.32
-19.71
-24.02
-29.28
-35.19
-41.12
-46.10
-48.93
-48.53
-44.29
-36.35
-25.61
-13.55
-1.70
8.72
17.04
23.14
27.28
29.80
31.03
31.26
30.79
29.97
29.14
28.55
28.28
28.21
28.19
28.07
27.83
27.54
27.27
27.08
26.91
26.59
25.95
24.82
23.14
21.00
18.56
16.04
13.62
11.27
8.87
6.17
2.98
-0.77
-4.94
-9.26
-13.50
-17.49
-21.23
-24.88
-28.71
-32.97
-37.80
-43.09
-48.31
-52.54
-54.61
-53.50
-48.64
-40.22
-29.19
-16.92
-4.86
5.82
14.45
20.88
25.34
28.25
30.10
31.27
32.02
32.48
32.68
32.65
32.41
32.00
31.36
30.38
28.97
27.16
25.19
23.45
22.25
21.71
21.63
21.59
21.14
19.98
18.09
15.61
12.84
10.01
7.28
4.68
2.15
-0.44
-3.22
-6.25
-9.54
-12.97
-16.38
-19.62
-22.63
-25.44
-28.21
-31.25
-34.84
-39.22
-44.30
-49.60
-54.21
-56.93
-56.63
-52.64
-45.01
-34.59
-22.77
-11.06
-0.67
7.79
14.23
18.94
22.28
24.52
25.76
26.02
25.44
24.21
22.69
21.20
19.95
19.01
18.34
17.85
17.53
17.41
17.58
18.01
18.62
19.18
19.43
19.18
18.30
16.83
14.92
12.74
10.45
8.24
6.17
4.29
2.51
0.64
-1.50
-4.07
-7.07
-10.33
-13.53
-16.39
-18.79
-20.85
-22.93
-25.47
-28.87
-33.26
-38.52
-44.11
-49.16
-52.64
-53.53
-51.17
-45.46
-36.99
-26.85
-16.36
-6.72
1.26
7.25
11.37
13.97
15.52
16.39
16.83
16.96
16.79
16.29
15.51
14.58
13.74
13.21
13.14
13.49
14.12
14.79
15.27
15.41
15.18
14.59
13.69
12.55
11.26
9.94
8.72
7.68
6.84
6.12
5.34
4.39
3.22
1.93
0.69
-0.37
-1.23
-2.05
-3.14
-4.78
-7.04
-9.63
-11.89
-12.84
-11.44
-6.96
0.86
11.61
24.39
37.99
51.31
63.54
74.28
83.45
91.14
97.47
102.59
106.65
109.84
112.31
114.03
114.67
113.60
110.00
103.14
92.61
78.47
61.23
41.76
21.09
0.28
-19.76
-38.36
-55.16
-70.08
-83.18
-94.63
-104.57
-113.08
-120.23
-126.03
-130.49
-133.58
-135.30
-135.63
-134.65
-132.56
-129.62
-126.20
-122.64
-119.30
-116.53
-114.65
-113.74
-113.59
-113.49
-112.38
-109.11
-102.85
-93.37
-81.14
-67.09
-52.33
-37.80
-24.21
-12.04
-1.68
6.46
12.13
15.22
15.98
14.97
12.86
10.37
8.04
6.29
5.36
5.45
6.66
9.03
12.47
16.80
21.74
26.87
31.73
35.75
38.39
39.24
38.23
35.63
32.12
28.47
25.35
23.06
21.50
20.31
19.04
17.44
15.48
13.29
11.03
8.69
6.06
2.75
-1.67
-7.50
-14.75
-23.00
-31.42
-38.86
-44.11
-46.21
-44.71
-39.83
-32.41
-23.63
-14.74
-6.70
-0.02
5.29
9.53
13.20
16.76
20.54
24.67
28.99
33.18
36.85
39.68
41.64
42.92
43.86
44.75
45.68
46.52
47.03
47.03
46.44
45.35
43.88
42.12
40.08
37.74
35.11
32.26
29.30
26.27
23.15
19.82
16.16
12.07
7.49
2.35
-3.44
-9.89
-16.81
-23.64
-29.40
-32.80
-32.65
-28.27
-19.78
-8.13
5.16
18.35
29.95
38.87
44.39
46.14
44.02
38.26
29.41
18.35
6.16
-6.13
-17.68
-27.97
-36.76
-43.99
-49.74
-54.14
-57.32
-59.46
-60.64
-60.87
-60.09
-58.25
-55.32
-51.40
-46.74
-41.66
-36.46
-31.34
-26.38
-21.54
-16.80
-12.28
-8.37
-5.69
-4.99
-6.86
-11.49
-18.33
-26.11
-33.06
-37.34
-37.58
-33.31
-25.11
-14.36
-2.80
7.97
16.82
23.25
27.23
29.02
28.98
27.42
24.53
20.43
15.18
8.88
1.81
-5.52
-12.38
-17.95
-21.55
-22.82
-21.81
-18.93
-14.72
-9.74
-4.46
0.74
5.58
9.81
13.25
15.84
17.60
18.68
19.31
19.67
19.84
19.74
19.12
17.63
14.87
10.57
4.64
-2.74
-11.09
-19.57
-27.07
-32.34
-34.31
-32.34
-26.51
-17.63
-6.98
3.97
14.01
22.38
28.79
33.32
36.26
37.90
38.49
38.20
37.17
35.53
33.46
31.20
29.04
27.21
25.84
24.92
24.36
24.13
24.33
25.20
26.98
29.74
33.21
36.86
39.97
41.95
42.47
41.58
39.62
37.02
34.22
31.52
29.11
26.98
24.87
22.28
18.45
12.56
4.16
-6.56
-18.56
-30.11
-39.35
-44.80
-45.87
-42.99
-37.30
-30.16
-22.72
-15.65
-9.24
-3.56
1.26
5.06
7.67
9.05
9.44
9.30
9.16
9.43
10.31
11.76
13.58
15.55
17.51
19.35
21.01
22.38
23.29
23.53
22.86
21.17
18.44
14.80
10.45
5.66
0.68
-4.24
-8.90
-13.17
-17.04
-20.66
-24.27
-28.15
-32.57
-37.65
-43.32
-49.24
-54.72
-58.80
-60.40
-58.63
-53.10
-44.09
-32.59
-19.97
-7.58
3.56
12.94
20.51
26.39
30.80
33.87
35.72
36.48
36.32
35.54
34.43
33.29
32.35
31.67
31.21
30.82
30.32
29.60
28.65
27.50
26.20
24.72
22.92
20.61
17.63
13.90
9.54
4.77
-0.12
-4.86
-9.29
-13.40
-17.29
-21.17
-25.28
-29.86
-35.09
-40.90
-46.93
-52.35
-56.04
-56.77
-53.64
-46.47
-35.89
-23.22
-10.05
2.23
12.77
21.30
27.93
32.88
36.32
38.30
38.84
38.10
36.38
34.05
31.48
28.89
26.39
23.98
21.72
19.72
18.11
16.96
16.28
15.90
15.54
14.95
13.91
12.40
10.51
8.41
6.24
4.05
1.79
-0.65
-3.36
-6.39
-9.72
-13.24
-16.88
-20.60
-24.47
-28.64
-33.32
-38.65
-44.51
-50.45
-55.64
-58.96
-59.37
-56.20
-49.51
-40.04
-29.08
-18.07
-8.16
0.01
6.39
11.35
15.35
18.75
21.67
23.96
25.41
25.90
25.46
24.39
23.12
22.06
21.49
21.49
21.93
22.55
23.08
23.34
23.23
22.77
21.99
20.87
19.36
17.34
14.73
11.52
7.85
3.98
0.17
-3.40
-6.71
-9.97
-13.53
-17.78
-23.10
-29.77
-37.82
-46.90
-56.17
-64.38
-70.07
-72.00
-69.53
-62.80
-52.68
-40.45
-27.40
-14.58
-2.65
7.97
16.98
24.15
29.29
32.36
33.46
32.85
30.94
28.18
25.06
22.07
19.63
18.07
17.58
18.30
20.22
23.22
27.04
31.18
34.94
37.62
38.69
38.03
35.96
33.13
30.23
27.72
25.66
23.80
21.70
18.90
15.10
10.17
4.24
-2.28
-8.65
-13.88
-16.89
-16.81
-13.31
-6.69
2.12
11.83
21.20
29.26
35.58
40.16
43.33
45.51
47.07
48.34
49.54
50.89
52.53
54.38
56.09
56.99
56.41
53.97
49.84
44.81
39.93
36.15
33.80
32.57
31.71
30.45
28.36
25.45
22.01
18.34
14.56
10.55
6.14
1.25
-4.01
-9.40
-14.74
-20.12
-25.99
-33.10
-42.21
-53.64
-66.98
-80.91
-93.41
-102.37
-106.21
-104.42
-97.63
-87.32
-75.24
-62.84
-51.05
-40.21
-30.33
-21.19
-12.54
-4.13
4.29
12.85
21.47
29.80
37.19
42.88
46.20
46.82
44.94
41.39
37.45
34.50
33.56
34.89
37.86
41.18
43.47
43.74
41.68
37.61
32.16
25.93
19.35
12.65
6.06
-0.20
-5.85
-10.77
-15.06
-19.08
-23.36
-28.31
-34.11
-40.52
-46.89
-52.36
-56.07
-57.52
-56.65
-53.85
-49.77
-45.05
-40.15
-35.33
-30.76
-26.69
-23.50
-21.55
-21.02
-21.71
-23.09
-24.45
-25.15
-24.81
-23.37
-21.03
-18.06
-14.77
-11.42
-8.24
-5.47
-3.25
-1.61
-0.51
0.20
0.60
0.73
0.54
-0.01
-0.82
-1.60
-1.95
-1.42
0.28
3.14
6.73
10.35
13.21
14.75
14.91
14.09
13.06
12.55
13.07
14.67
17.14
20.13
23.37
26.70
29.99
33.07
35.62
37.27
37.68
36.71
34.50
31.48
28.26
25.47
23.51
22.55
22.46
22.92
23.52
23.85
23.54
22.29
19.90
16.33
11.75
6.47
0.88
-4.74
-10.24
-15.65
-20.99
-26.21
-31.09
-35.35
-38.81
-41.59
-44.11
-46.97
-50.73
-55.64
-61.50
-67.61
-72.90
-76.22
-76.72
-74.04
-68.54
-61.07
-52.75
-44.54
-37.02
-30.31
-24.25
-18.63
-13.43
-8.88
-5.35
-3.10
-2.18
-2.34
-3.12
-4.02
-4.69
-4.88
-4.48
-3.36
-1.41
1.47
5.18
9.41
13.68
17.50
20.55
22.81
24.52
25.92
27.10
27.89
27.98
27.10
25.21
22.59
19.74
17.18
15.22
13.89
12.96
12.02
10.66
8.53
5.42
1.32
-3.46
-8.24
-12.04
-13.73
-12.34
-7.40
0.94
11.87
24.15
36.42
47.44
56.35
62.67
66.31
67.42
66.32
63.35
58.82
53.04
46.26
38.80
30.96
23.03
15.21
7.61
0.31
-6.70
-13.38
-19.61
-25.13
-29.64
-32.84
-34.61
-35.09
-34.66
-33.83
-33.06
-32.62
-32.54
-32.78
-33.32
-34.19
-35.48
-37.14
-38.96
-40.53
-41.40
-41.32
-40.35
-38.94
-37.71
-37.27
-38.01
-39.92
-42.62
-45.36
-47.18
-47.05
-44.08
-37.74
-27.99
-15.36
-0.88
14.14
28.43
40.97
51.15
58.72
63.73
66.40
66.95
65.66
62.80
58.73
53.84
48.59
43.38
38.48
34.03
30.01
26.35
23.01
19.97
17.26
14.92
12.91
11.17
9.53
7.76
5.68
3.09
-0.05
-3.67
-7.60
-11.61
-15.54
-19.31
-22.94
-26.53
-30.22
-34.11
-38.32
-42.93
-47.92
-53.05
-57.67
-60.85
-61.51
-58.82
-52.53
-43.17
-31.86
-20.04
-8.97
0.56
8.27
14.28
18.90
22.36
24.76
26.16
26.58
26.23
25.38
24.36
23.39
22.51
21.59
20.49
19.16
17.69
16.31
15.20
14.39
13.71
12.88
11.68
10.09
8.25
6.38
4.65
3.06
1.47
-0.27
-2.31
-4.73
-7.56
-10.80
-14.47
-18.63
-23.30
-28.49
-34.13
-40.00
-45.70
-50.58
-53.73
-54.25
-51.47
-45.20
-35.93
-24.73
-12.99
-2.13
6.84
13.48
17.87
20.49
21.90
22.54
22.65
22.31
21.57
20.53
19.40
18.36
17.48
16.70
15.92
15.14
14.50
14.20
14.38
14.99
15.70
16.07
15.73
14.53
12.62
10.30
7.85
5.39
2.88
0.16
-2.86
-6.18
-9.64
-13.04
-16.21
-19.10
-21.83
-24.64
-27.84
-31.69
-36.32
-41.64
-47.23
-52.35
-55.96
-57.07
-54.89
-49.17
-40.32
-29.32
-17.45
-5.93
4.30
12.79
19.46
24.46
28.05
30.46
31.95
32.71
32.98
32.93
32.66
32.16
31.44
30.51
29.49
28.53
27.79
27.34
27.12
26.98
26.68
26.03
24.90
23.26
21.22
18.87
16.35
13.70
10.89
7.86
4.51
0.83
-3.10
-7.07
-10.85
-14.21
-17.09
-19.66
-22.34
-25.66
-30.01
-35.40
-41.30
-46.72
-50.42
-51.34
-48.92
-43.31
-35.28
-25.99
-16.61
-8.07
-0.89
4.79
9.06
12.08
13.98
14.85
14.89
14.44
13.94
13.71
13.88
14.30
14.63
14.60
14.13
13.40
12.70
12.20
11.91
11.59
10.93
9.67
7.73
5.20
2.26
-0.82
-3.78
-6.42
-8.64
-10.48
-12.17
-14.05
-16.50
-19.83
-24.15
-29.28
-34.71
-39.55
-42.77
-43.35
-40.61
-34.47
-25.48
-14.75
-3.62
6.67
15.30
21.96
26.77
30.07
32.21
33.40
33.77
33.37
32.34
30.87
29.23
27.62
26.21
25.06
24.19
23.61
23.33
23.30
23.41
23.47
23.25
22.57
21.32
19.47
17.03
14.08
10.68
6.92
2.92
-1.21
-5.30
-9.27
-13.08
-16.78
-20.57
-24.72
-29.51
-35.13
-41.51
-48.15
-54.16
-58.34
-59.49
-56.82
-50.24
-40.46
-28.74
-16.59
-5.25
4.52
12.55
19.07
24.41
28.88
32.59
35.52
37.63
38.93
39.50
39.50
39.06
38.31
37.38
36.39
35.50
34.87
34.61
34.72
35.01
35.16
34.82
33.73
31.81
29.20
26.12
22.88
19.66
16.52
13.44
10.30
7.03
3.56
-0.09
-3.86
-7.65
-11.37
-14.97
-18.54
-22.32
-26.61
-31.73
-37.70
-44.20
-50.39
-55.14
-57.22
-55.76
-50.53
-42.05
-31.47
-20.15
-9.30
0.27
8.28
14.82
20.12
24.33
27.53
29.69
30.86
31.18
30.93
30.38
29.75
29.11
28.43
27.63
26.65
25.55
24.39
23.27
22.17
21.00
19.66
18.07
16.21
14.05
11.57
8.70
5.44
1.86
-1.81
-5.32
-8.42
-11.06
-13.35
-15.57
-18.09
-21.24
-25.26
-30.25
-36.06
-42.23
-47.94
-52.12
-53.64
-51.74
-46.24
-37.73
-27.37
-16.54
-6.40
2.32
9.44
15.08
19.46
22.77
25.06
26.35
26.67
26.23
25.32
24.32
23.59
23.40
23.82
24.75
25.92
27.02
27.77
28.01
27.77
27.12
26.15
24.88
23.20
21.01
18.25
14.96
11.22
7.18
2.97
-1.32
-5.59
-9.76
-13.80
-17.77
-21.91
-26.57
-32.02
-38.26
-44.78
-50.59
-54.39
-54.95
-51.56
-44.28
-33.94
-21.87
-9.52
1.91
11.66
19.46
25.38
29.70
32.69
34.65
35.76
36.15
35.93
35.22
34.15
32.86
31.43
29.93
28.38
26.81
25.25
23.79
22.50
21.35
20.22
18.91
17.29
15.30
13.04
10.71
8.45
6.32
4.25
2.04
-0.52
-3.54
-6.94
-10.51
-13.95
-17.02
-19.71
-22.23
-25.01
-28.52
-33.07
-38.68
-44.95
-51.09
-56.06
-58.73
-58.25
-54.23
-46.90
-37.12
-26.14
-15.26
-5.49
2.70
9.31
14.67
19.13
22.90
25.96
28.19
29.48
29.92
29.73
29.18
28.52
27.91
27.43
27.11
27.00
27.07
27.26
27.42
27.32
26.73
25.49
23.56
21.02
18.07
14.94
11.87
9.03
6.42
3.90
1.25
-1.77
-5.21
-8.93
-12.64
-15.99
-18.74
-20.86
-22.54
-24.15
-26.16
-29.02
-33.03
-38.13
-43.82
-49.11
-52.78
-53.65
-51.09
-45.14
-36.59
-26.63
-16.54
-7.27
0.63
7.00
11.93
15.59
18.15
19.79
20.66
20.93
20.79
20.47
20.15
20.02
20.13
20.47
20.91
21.26
21.38
21.16
20.60
19.75
18.65
17.31
15.66
13.60
11.03
7.92
4.33
0.43
-3.54
-7.33
-10.72
-13.62
-16.11
-18.43
-20.91
-23.90
-27.64
-32.07
-36.87
-41.35
-44.59
-45.65
-43.77
-38.68
-30.66
-20.55
-9.57
1.06
10.35
17.75
23.12
26.67
28.69
29.50
29.38
28.61
27.47
26.27
25.21
24.33
23.55
22.70
21.71
20.66
19.72
19.11
18.88
18.90
18.83
18.34
17.21
15.39
13.04
10.32
7.36
4.23
0.93
-2.53
-6.09
-9.65
-13.12
-16.43
-19.56
-22.52
-25.39
-28.38
-31.77
-35.85
-40.76
-46.30
-51.83
-56.36
-58.77
-58.16
-54.15
-46.95
-37.36
-26.48
-15.43
-5.16
3.76
11.10
16.94
21.49
25.03
27.72
29.66
30.85
31.31
31.08
30.27
29.05
27.58
26.04
24.53
23.14
21.95
20.94
20.05
19.08
17.81
16.05
13.76
11.04
8.23
5.64
3.48
1.72
0.12
-1.63
-3.79
-6.37
-9.21
-12.08
-14.82
-17.47
-20.20
-23.37
-27.27
-32.07
-37.68
-43.61
-49.03
-52.86
-54.06
-51.96
-46.51
-38.35
-28.57
-18.45
-9.05
-1.01
5.43
10.35
13.97
16.53
18.23
19.29
19.86
20.12
20.17
20.09
19.93
19.72
19.52
19.37
19.31
19.33
19.37
19.30
18.91
18.01
16.47
14.27
11.54
8.47
5.22
1.88
-1.56
-5.11
-8.73
-12.23
-15.41
-18.15
-20.52
-22.76
-25.21
-28.13
-31.70
-35.93
-40.67
-45.55
-49.89
-52.73
-53.04
-50.12
-43.83
-34.81
-24.24
-13.47
-3.57
4.84
11.61
16.82
20.60
23.01
24.15
24.20
23.46
22.32
21.13
20.15
19.44
18.98
18.66
18.37
18.02
17.62
17.17
16.76
16.41
16.08
15.61
14.79
13.40
11.32
8.61
5.47
2.18
-1.05
-4.16
-7.29
-10.70
-14.73
-19.63
-25.49
-32.09
-38.88
-44.94
-49.21
-50.71
-48.85
-43.60
-35.54
-25.63
-14.99
-4.60
4.88
13.12
20.04
25.69
30.14
33.43
35.46
36.16
35.50
33.64
30.96
28.01
25.31
23.18
21.65
20.47
19.31
17.90
16.20
14.34
12.52
10.86
9.36
7.88
6.32
4.63
2.88
1.16
-0.49
-2.17
-4.08
-6.47
-9.51
-13.28
-17.74
-22.85
-28.48
-34.45
-40.42
-45.82
-49.91
-51.90
-51.23
-47.71
-41.66
-33.76
-24.91
-15.97
-7.57
-0.04
6.56
12.35
17.52
22.25
26.65
30.72
34.39
37.52
39.97
41.71
42.79
43.38
43.62
43.60
43.20
42.22
40.50
37.97
34.77
31.14
27.34
23.47
19.51
15.38
11.02
6.47
1.86
-2.65
-6.90
-10.80
-14.25
-17.24
-19.82
-22.16
-24.59
-27.47
-31.12
-35.70
-40.95
-46.26
-50.65
-53.01
-52.41
-48.46
-41.48
-32.49
-22.81
-13.71
-5.91
0.46
5.77
10.47
14.80
18.69
21.86
24.07
25.33
25.93
26.32
26.87
27.75
28.88
29.99
30.75
30.95
30.47
29.35
27.70
25.70
23.50
21.22
18.95
16.72
14.61
12.62
10.79
9.06
7.36
5.52
3.37
0.75
-2.52
-6.55
-11.43
-17.21
-23.71
-30.47
-36.65
-41.20
-43.05
-41.51
-36.46
-28.43
-18.44
-7.67
2.76
12.10
19.88
25.92
30.20
32.79
33.86
33.65
32.47
30.67
28.62
26.66
25.05
23.96
23.40
23.20
23.10
22.79
22.02
20.77
19.19
17.51
15.88
14.32
12.64
10.58
7.97
4.85
1.42
-2.03
-5.33
-8.49
-11.67
-15.09
-18.89
-23.15
-27.89
-33.20
-39.14
-45.63
-52.25
-58.07
-61.88
-62.45
-59.05
-51.73
-41.39
-29.43
-17.38
-6.41
2.88
10.42
16.43
21.22
24.97
27.78
29.63
30.62
30.92
30.86
30.75
30.86
31.27
31.86
32.43
32.78
32.82
32.54
31.93
30.95
29.49
27.44
24.76
21.61
18.30
15.12
12.28
9.77
7.42
4.96
2.18
-1.02
-4.56
-8.24
-11.82
-15.16
-18.32
-21.52
-25.08
-29.32
-34.34
-39.98
-45.76
-50.91
-54.52
-55.66
-53.66
-48.32
-39.99
-29.58
-18.34
-7.48
2.02
9.76
15.72
20.19
23.54
26.02
27.77
28.88
29.47
29.70
29.78
29.82
29.81
29.64
29.23
28.60
27.93
27.43
27.18
27.09
26.85
26.13
24.72
22.66
20.21
17.70
15.35
13.14
10.84
8.15
4.83
0.85
-3.61
-8.22
-12.68
-16.82
-20.62
-24.22
-27.82
-31.67
-35.92
-40.62
-45.58
-50.36
-54.15
-56.02
-55.09
-50.88
-43.54
-33.85
-23.01
-12.30
-2.73
5.18
11.37
16.04
19.45
21.76
22.99
23.13
22.27
20.68
18.77
16.98
15.61
14.75
14.26
13.89
13.46
12.89
12.28
11.78
11.47
11.28
11.01
10.37
9.13
7.23
4.78
2.05
-0.66
-3.12
-5.26
-7.21
-9.26
-11.69
-14.72
-18.45
-22.77
-27.42
-31.89
-35.48
-37.33
-36.61
-32.72
-25.56
-15.66
-4.02
8.05
19.41
29.29
37.42
43.91
49.04
53.08
56.20
58.55
60.30
61.74
63.26
65.21
67.80
71.02
74.61
78.26
81.73
84.88
87.72
90.28
92.43
93.90
94.20
92.75
88.96
82.34
72.61
59.78
44.17
26.36
7.10
-12.91
-33.12
-53.21
-72.99
-92.25
-110.84
-128.66
-145.74
-162.20
-178.01
-192.67
-205.11
-213.82
-217.30
-214.49
-205.16
-189.84
-169.63
-145.91
-120.23
-94.23
-69.56
-47.68
-29.39
-14.69
-2.68
7.97
18.40
29.09
39.58
48.69
54.93
56.96
53.93
45.66
32.61
15.95
-2.50
-20.38
-35.10
-44.39
-46.84
-42.16
-31.22
-15.60
2.91
22.78
42.89
62.40
80.54
96.48
109.42
118.80
124.51
126.84
126.26
123.27
118.22
111.52
103.87
96.30
90.00
85.81
83.80
83.14
82.23
79.34
73.20
63.34
50.13
34.59
17.97
1.56
-13.44
-26.08
-35.75
-42.48
-47.08
-51.06
-56.13
-63.50
-73.30
-84.34
-94.47
-101.41
-103.68
-101.17
-95.10
-87.37
-79.74
-73.13
-67.43
-61.98
-56.10
-49.74
-43.55
-38.62
-35.99
-36.18
-39.01
-43.79
-49.61
-55.52
-60.72
-64.53
-66.41
-66.05
-63.44
-59.00
-53.48
-47.83
-42.97
-39.56
-37.97
-38.18
-39.90
-42.64
-45.91
-49.32
-52.70
-56.13
-59.81
-63.94
-68.60
-73.57
-78.52
-83.13
-87.27
-91.03
-94.64
-98.14
-101.21
-103.15
-103.18
-100.80
-96.07
-89.46
-81.43
-72.02
-60.69
-46.75
-29.95
-10.89
9.16
28.87
47.63
65.77
84.20
103.69
124.30
145.32
165.77
184.86
202.14
217.32
229.86
238.84
243.33
242.81
237.49
228.20
215.83
200.92
183.55
163.59
141.12
116.71
91.33
66.12
42.09
20.07
0.64
-15.76
-28.94
-38.88
-45.76
-49.93
-51.81
-51.98
-51.22
-50.43
-50.44
-51.61
-53.64
-55.55
-56.12
-54.39
-49.95
-42.95
-33.72
-22.47
-9.26
5.83
22.30
39.16
55.12
69.18
80.91
90.59
98.79
105.89
111.72
115.63
117.02
115.96
113.43
111.05
110.26
111.52
113.90
115.50
114.39
109.61
101.63
92.06
82.76
74.91
68.33
61.46
51.89
37.02
14.91
-15.13
-52.20
-93.93
-137.00
-178.10
-214.74
-245.49
-269.49
-285.55
-291.73
-285.69
-265.97
-233.29
-190.86
-143.48
-95.59
-49.70
-5.88
37.06
79.80
121.14
158.15
187.77
208.71
222.51
232.74
243.09
255.23
267.66
276.19
275.60
261.61
232.49
189.58
137.12
81.17
28.31
-15.84
-47.97
-67.79
-77.88
-82.72
-87.15
-94.75
-106.65
-121.19
-134.54
-142.25
-141.06
-130.37
-112.87
-94.03
-80.46
-77.63
-87.88
-109.36
-136.67
-163.00
-182.72
-193.46
-196.73
-196.68
-198.02
-203.77
-214.25
-227.47
-240.55
-251.27
-258.73
-262.95
-263.85
-260.67
-252.02
-236.75
-214.85
-187.79
-158.09
-128.39
-100.41
-74.40
-49.40
-23.90
3.22
32.02
61.28
88.99
113.07
132.11
145.85
154.95
160.56
163.61
164.39
162.53
157.37
148.49
136.19
121.57
106.26
92.03
80.29
71.82
66.74
64.51
64.28
64.97
65.52
64.93
62.38
57.31
49.48
39.12
26.96
14.24
2.57
-6.30
-10.89
-10.38
-4.76
5.12
17.73
31.16
43.56
53.54
60.47
64.59
66.82
68.23
69.46
70.39
70.15
67.68
62.26
53.92
43.29
31.26
18.51
5.41
-7.80
-20.67
-32.44
-42.15
-49.02
-52.81
-53.93
-53.24
-51.78
-50.36
-49.29
-48.27
-46.43
-42.55
-35.54
-24.95
-11.26
3.98
18.56
30.10
36.71
37.46
32.87
24.93
16.91
12.62
15.17
25.71
42.75
62.41
79.81
90.90
94.06
90.51
83.47
76.52
72.06
70.58
70.95
71.43
70.62
67.94
63.83
59.74
58.18
62.58
76.59
102.83
141.55
189.75
241.82
290.95
331.23
359.21
374.32
378.36
374.39
365.78
355.56
346.18
339.27
335.36
333.55
331.37
325.20
310.94
285.15
246.01
194.19
132.92
67.34
3.16
-54.88
-104.00
-143.58
-174.51
-198.22
-215.98
-228.79
-237.67
-243.90
-249.06
-254.45
-260.65
-267.33
-273.43
-277.87
-279.99
-279.92
-278.43
-276.65
-275.68
-276.36
-279.20
-284.38
-291.75
-300.75
-310.54
-319.94
-327.74
-332.88
-334.75
-333.21
-328.64
-321.68
-313.15
-303.80
-294.40
-285.59
-277.84
-271.19
-265.15
-258.75
-250.88
-240.72
-228.09
-213.51
-198.10
-182.96
-168.87
-155.93
-143.64
-131.18
-117.85
-103.24
-87.34
-70.38
-52.67
-34.58
-16.49
1.14
17.79
33.04
46.70
58.93
70.19
80.97
91.58
102.17
112.76
123.48
134.58
146.29
158.58
170.95
182.67
193.00
201.47
207.99
212.69
215.68
216.90
216.25
213.75
209.65
204.42
198.53
192.26
185.63
178.58
171.11
163.39
155.57
147.66
139.49
130.83
121.64
112.15
102.79
93.88
85.37
76.75
67.18
55.85
42.24
26.55
9.73
-6.63
-20.78
-31.39
-38.14
-41.98
-44.79
-48.53
-54.19
-61.24
-67.85
-71.86
-71.73
-67.19
-59.21
-49.41
-39.41
-30.33
-22.60
-16.20
-10.88
-6.17
-1.30
4.49
11.60
19.73
27.68
33.58
35.24
30.97
20.92
7.83
-3.53
-8.08
-2.50
13.20
35.82
59.89
79.65
91.72
96.12
95.22
91.60
87.01
82.40
79.45
80.57
87.74
102.34
124.44
151.78
179.77
202.97
216.66
218.75
208.41
183.78
142.90
85.26
12.99
-68.85
-152.24
-227.62
-280.48
-295.85
-272.17
-224.56
-174.07
-134.46
-110.65
-97.05
-89.06
-85.34
-87.44
-99.18
-119.99
-143.82
-160.83
-159.15
-133.85
-90.38
-43.81
-3.59
24.96
40.07
42.29
33.65
16.01
-9.11
-39.17
-69.04
-91.78
-102.89
-101.02
-87.68
-66.12
-40.16
-13.22
12.33
35.55
56.25
73.20
85.22
92.32
96.08
98.70
101.64
105.10
108.41
110.79
111.06
108.73
104.24
98.72
93.19
88.00
82.82
77.05
70.41
62.92
55.11
47.90
42.22
38.44
36.08
34.13
31.67
28.56
25.49
23.75
24.62
28.67
35.41
43.28
50.16
53.96
53.36
48.32
40.28
31.90
26.15
25.27
29.84
38.62
49.07
58.54
65.34
69.21
71.09
72.23
73.33
74.09
73.27
69.26
60.87
47.99
31.83
14.66
-0.92
-12.74
-19.75
-22.20
-21.32
-18.74
-16.18
-15.15
-16.98
-22.63
-32.43
-45.74
-60.84
-75.33
-87.03
-94.74
-98.77
-100.79
-103.14
-108.09
-117.10
-130.47
-147.31
-165.59
-182.61
-195.40
-201.41
-199.16
-188.67
-171.46
-150.11
-127.46
-105.79
-86.30
-68.93
-52.80
-36.80
-20.16
-2.79
14.76
31.48
46.38
58.77
68.34
75.19
79.65
82.14
83.11
83.04
82.36
81.37
80.00
77.67
73.34
65.96
54.91
40.42
23.59
6.05
-10.63
-25.50
-38.41
-49.86
-60.72
-71.71
-83.33
-95.72
-108.83
-122.43
-136.19
-149.52
-161.58
-171.35
-177.84
-180.40
-179.06
-174.71
-169.02
-163.97
-161.36
-162.41
-167.66
-177.00
-189.78
-204.73
-219.93
-232.86
-240.90
-242.15
-236.11
-223.82
-207.31
-188.44
-167.82
-144.50
-116.63
-82.78
-43.11
0.33
44.18
85.08
120.74
150.38
174.34
193.25
207.36
216.25
219.15
215.60
205.90
191.31
173.75
155.34
137.89
122.70
110.49
101.50
95.66
92.57
91.49
91.33
90.74
88.40
83.37
75.43
65.14
53.77
42.82
33.57
26.70
22.14
19.23
17.08
15.09
13.28
12.43
13.84
18.84
28.18
41.61
57.79
74.63
89.93
102.05
110.24
114.67
116.09
115.32
112.88
108.72
102.27
92.68
79.08
60.98
38.67
13.35
-12.87
-37.39
-57.72
-72.10
-80.07
-82.45
-81.05
-77.88
-74.27
-70.17
-64.17
-54.11
-38.38
-17.01
7.86
32.49
52.94
66.56
72.85
73.28
70.35
66.41
62.91
60.49
59.36
59.81
62.20
66.64
72.61
78.89
83.86
86.08
84.82
80.24
73.23
64.97
56.50
48.38
40.66
33.01
25.07
16.76
8.44
0.89
-5.03
-8.69
-10.05
-9.64
-8.41
-7.33
-7.01
-7.58
-8.73
-10.05
-11.31
-12.62
-14.40
-17.13
-21.09
-26.23
-32.08
-37.95
-43.09
-46.85
-48.87
-49.07
-47.66
-45.06
-41.73
-38.09
-34.52
-31.32
-28.76
-27.12
-26.61
-27.34
-29.25
-32.04
-35.13
-37.75
-38.99
-38.03
-34.34
-27.84
-18.97
-8.59
2.24
12.56
21.68
29.21
35.05
39.22
41.79
42.92
42.83
41.80
40.12
38.06
35.78
33.37
30.88
28.39
26.06
24.08
22.54
21.39
20.39
19.15
17.33
14.76
11.53
7.90
4.24
0.80
-2.40
-5.58
-9.11
-13.40
-18.63
-24.65
-30.90
-36.39
-40.06
-40.91
-38.42
-32.62
-24.13
-13.94
-3.20
7.07
16.09
23.39
28.79
32.34
34.26
34.80
34.21
32.76
30.77
28.58
26.54
24.86
23.57
22.43
21.11
19.40
17.37
15.38
13.86
13.08
12.90
12.82
12.17
10.45
7.53
3.69
-0.55
-4.65
-8.26
-11.34
-14.12
-16.94
-20.17
-24.04
-28.65
-33.87
-39.34
-44.42
-48.29
-49.99
-48.72
-44.10
-36.33
-26.25
-15.05
-3.99
5.97
14.31
20.87
25.78
29.17
31.22
32.01
31.74
30.68
29.15
27.47
25.91
24.60
23.53
22.64
21.77
20.82
19.75
18.61
17.45
16.31
15.11
13.65
11.70
9.05
5.69
1.78
-2.37
-6.44
-10.24
-13.75
-17.13
-20.59
-24.27
-28.21
-32.43
-36.92
-41.67
-46.54
-51.07
-54.47
-55.66
-53.70
-48.09
-39.16
-27.87
-15.60
-3.70
6.90
15.76
22.79
28.05
31.57
33.31
33.27
31.61
28.75
25.25
21.73
18.58
15.99
13.87
12.02
10.27
8.56
7.01
5.75
4.90
4.36
3.90
3.15
1.83
-0.14
-2.56
-5.06
-7.28
-9.04
-10.50
-12.07
-14.25
-17.44
-21.75
-26.92
-32.34
-37.13
-40.31
-41.01
-38.72
-33.41
-25.65
-16.39
-6.78
2.12
9.58
15.20
18.91
20.82
21.18
20.31
18.57
16.33
13.96
11.77
9.99
8.71
7.91
7.40
7.01
6.59
6.16
5.86
5.91
6.35
7.05
7.61
7.58
6.59
4.55
1.63
-1.77
-5.22
-8.40
-11.22
-13.76
-16.28
-19.16
-22.79
-27.42
-32.99
-38.98
-44.39
-47.93
-48.37
-45.00
-37.89
-27.92
-16.53
-5.23
4.83
13.00
19.17
23.55
26.38
27.90
28.26
27.65
26.32
24.56
22.70
21.01
19.65
18.64
17.93
17.36
16.78
16.04
15.09
13.94
12.66
11.31
9.89
8.33
6.48
4.23
1.53
-1.52
-4.72
-7.85
-10.78
-13.49
-16.14
-18.94
-22.10
-25.79
-30.07
-34.94
-40.24
-45.54
-50.08
-52.85
-52.84
-49.32
-42.21
-32.15
-20.38
-8.33
2.74
12.07
19.43
24.97
29.01
31.83
33.61
34.44
34.42
33.71
32.52
31.10
29.63
28.24
26.94
25.74
24.61
23.51
22.41
21.27
20.05
18.72
17.30
15.75
14.04
12.03
9.58
6.60
3.11
-0.72
-4.62
-8.28
-11.60
-14.57
-17.42
-20.48
-23.99
-28.15
-32.98
-38.31
-43.71
-48.49
-51.76
-52.59
-50.30
-44.69
-36.20
-25.83
-14.85
-4.44
4.50
11.56
16.65
19.93
21.65
22.09
21.57
20.38
18.81
17.07
15.27
13.48
11.73
10.06
8.52
7.17
6.09
5.27
4.66
4.10
3.34
2.06
-0.01
-2.99
-6.78
-11.08
-15.46
-19.53
-23.04
-26.06
-28.89
-31.98
-35.76
-40.41
-45.69
-50.90
-54.94
-56.63
-55.04
-49.83
-41.39
-30.71
-19.06
-7.66
2.64
11.35
18.38
23.83
27.92
30.84
32.73
33.73
33.94
33.51
32.66
31.69
30.88
30.43
30.36
30.54
30.81
31.14
31.62
32.38
33.43
34.47
34.99
34.35
32.12
28.18
22.76
16.25
8.98
1.04
-7.78
-17.81
-29.35
-42.44
-56.69
-71.15
-84.42
-94.79
-100.60
-100.75
-95.00
-84.16
-69.86
-54.12
-38.79
-25.11
-13.59
-4.21
3.26
8.96
12.90
15.09
15.78
15.57
15.25
15.50
16.56
18.09
19.36
19.62
18.53
16.33
13.69
11.34
9.69
8.64
7.71
6.34
4.21
1.36
-1.85
-4.97
-7.62
-9.63
-10.98
-11.78
-12.22
-12.62
-13.33
-14.63
-16.44
-18.23
-18.98
-17.56
-13.15
-5.63
4.35
15.56
26.63
36.40
44.21
49.86
53.47
55.24
55.37
53.99
51.32
47.62
43.27
38.69
34.21
30.07
26.39
23.18
20.47
18.28
16.69
15.73
15.31
15.23
15.14
14.69
13.60
11.74
9.12
5.85
2.06
-2.22
-7.09
-12.71
-19.15
-26.23
-33.39
-39.65
-43.84
-44.88
-42.13
-35.63
-26.08
-14.70
-2.87
8.21
17.70
25.21
30.65
34.14
35.86
35.94
34.56
31.88
28.20
23.90
19.49
15.46
12.15
9.72
8.04
6.80
5.65
4.30
2.65
0.67
-1.57
-4.05
-6.77
-9.80
-13.16
-16.94
-21.25
-26.19
-31.79
-37.86
-43.83
-48.73
-51.46
-51.04
-47.03
-39.69
-29.96
-19.11
-8.41
1.26
9.41
15.92
20.82
24.16
25.91
26.04
24.61
21.84
18.09
13.82
9.49
5.47
2.01
-0.77
-2.89
-4.47
-5.72
-6.81
-7.90
-9.06
-10.29
-11.55
-12.88
-14.36
-16.13
-18.39
-21.32
-25.00
-29.28
-33.69
-37.38
-39.22
-38.07
-33.21
-24.62
-13.06
0.08
13.27
25.25
35.31
43.30
49.38
53.77
56.61
57.92
57.71
56.17
53.62
50.56
47.45
44.60
42.11
39.88
37.74
35.64
33.66
31.97
30.70
29.76
28.79
27.24
24.62
20.63
15.36
9.19
2.66
-3.69
-9.49
-14.54
-18.83
-22.56
-26.10
-29.94
-34.60
-40.35
-46.95
-53.54
-58.75
-61.06
-59.35
-53.22
-43.26
-30.74
-17.31
-4.43
6.91
16.35
23.99
30.19
35.26
39.36
42.49
44.53
45.41
45.16
43.97
42.12
39.92
37.62
35.43
33.55
32.12
31.26
31.00
31.23
31.64
31.78
31.16
29.40
26.43
22.49
18.08
13.75
9.87
6.43
3.10
-0.61
-5.07
-10.31
-16.01
-21.66
-26.71
-30.88
-34.20
-36.98
-39.67
-42.75
-46.58
-51.25
-56.47
-61.50
-65.19
-66.27
-63.73
-57.18
-47.07
-34.55
-21.09
-8.04
3.76
13.93
22.48
29.56
35.24
39.57
42.61
44.49
45.38
45.49
44.94
43.86
42.40
40.75
39.10
37.59
36.25
35.02
33.81
32.58
31.29
29.90
28.33
26.48
24.29
21.77
18.99
16.08
13.09
10.02
6.87
3.65
0.43
-2.65
-5.57
-8.35
-11.12
-14.00
-16.96
-19.87
-22.50
-24.73
-26.64
-28.48
-30.64
-33.49
-37.28
-42.00
-47.44
-53.03
-57.94
-61.10
-61.48
-58.39
-51.73
-42.14
-30.84
-19.22
-8.46
0.76
8.33
14.44
19.38
23.38
26.48
28.74
30.20
30.96
31.17
30.96
30.41
29.62
28.67
27.68
26.80
26.24
26.11
26.46
27.17
27.99
28.61
28.83
28.53
27.77
26.57
24.91
22.69
19.77
16.16
12.10
7.98
4.25
1.18
-1.21
-3.17
-5.05
-7.20
-9.80
-12.85
-16.18
-19.55
-22.68
-25.41
-27.72
-29.83
-32.13
-35.06
-38.98
-43.92
-49.43
-54.54
-57.98
-58.53
-55.41
-48.55
-38.69
-27.10
-15.20
-4.24
5.00
12.25
17.64
21.58
24.51
26.73
28.38
29.34
29.46
28.61
26.90
24.71
22.57
20.97
20.20
20.25
20.84
21.60
22.21
22.53
22.57
22.47
22.40
22.42
22.49
22.45
22.08
21.25
19.97
18.40
16.82
15.48
14.45
13.65
12.83
11.78
10.33
8.48
6.30
3.87
1.25
-1.51
-4.32
-7.09
-9.81
-12.62
-15.82
-19.73
-24.45
-29.56
-34.15
-36.86
-36.33
-31.71
-23.05
-11.47
1.09
12.40
20.56
24.58
24.51
21.23
15.99
9.90
3.71
-2.32
-8.25
-14.14
-20.04
-25.72
-30.83
-35.00
-38.11
-40.37
-42.28
-44.41
-47.03
-49.86
-52.17
-53.20
-52.60
-50.86
-49.08
-48.52
-49.91
-53.09
-57.00
-60.29
-61.86
-61.37
-59.16
-55.95
-52.35
-48.55
-44.50
-40.07
-35.37
-30.85
-27.08
-24.49
-23.06
-22.31
-21.32
-19.03
-14.41
-6.80
3.94
17.27
32.06
46.88
60.35
71.50
79.85
85.39
88.35
89.04
87.79
85.09
81.57
77.91
74.73
72.35
70.68
69.36
67.85
65.70
62.64
58.70
54.08
49.11
44.02
38.88
33.55
27.85
21.61
14.83
7.68
0.43
-6.67
-13.37
-19.45
-24.66
-28.85
-31.98
-34.32
-36.43
-39.04
-42.74
-47.71
-53.70
-60.00
-65.78
-70.26
-72.87
-73.27
-71.27
-66.90
-60.41
-52.33
-43.42
-34.53
-26.42
-19.51
-13.87
-9.22
-5.13
-1.22
2.73
6.65
10.31
13.38
15.64
17.04
17.73
17.97
17.97
17.80
17.34
16.42
14.87
12.71
10.13
7.42
4.78
2.23
-0.36
-3.18
-6.34
-9.80
-13.38
-16.90
-20.21
-23.28
-26.17
-28.93
-31.61
-34.15
-36.43
-38.32
-39.71
-40.59
-41.06
-41.23
-41.12
-40.56
-39.14
-36.34
-31.74
-25.26
-17.33
-8.73
-0.41
6.88
12.79
17.34
20.84
23.59
25.76
27.39
28.41
28.84
28.79
28.49
28.12
27.76
27.35
26.72
25.74
24.38
22.73
20.98
19.28
17.64
15.95
13.98
11.54
8.56
5.01
1.02
-3.28
-7.75
-12.27
-16.78
-21.17
-25.42
-29.50
-33.39
-37.01
-40.26
-43.04
-45.14
-46.31
-46.19
-44.37
-40.42
-34.14
-25.71
-15.82
-5.55
3.91
11.57
16.98
20.24
21.82
22.32
22.18
21.62
20.69
19.48
18.14
16.93
16.09
15.63
15.44
15.24
14.90
14.39
13.85
13.36
12.80
11.87
10.18
7.46
3.72
-0.71
-5.33
-9.64
-13.32
-16.31
-18.86
-21.40
-24.39
-28.21
-32.88
-38.09
-43.07
-46.86
-48.45
-47.16
-42.77
-35.65
-26.62
-16.76
-7.13
1.45
8.53
13.98
17.95
20.71
22.52
23.66
24.32
24.67
24.83
24.81
24.55
23.90
22.73
21.03
18.92
16.69
14.67
13.11
12.03
11.20
10.23
8.72
6.45
3.47
0.09
-3.26
-6.26
-8.82
-11.08
-13.38
-16.12
-19.60
-23.94
-29.07
-34.63
-39.91
-43.97
-45.78
-44.53
-39.88
-32.18
-22.38
-11.72
-1.42
7.59
14.82
20.10
23.51
25.33
25.95
25.87
25.56
25.30
25.17
24.99
24.48
23.42
21.73
19.57
17.19
14.85
12.73
10.89
9.29
7.83
6.36
4.79
2.97
0.80
-1.77
-4.70
-7.84
-10.98
-13.91
-16.61
-19.21
-22.11
-25.69
-30.17
-35.35
-40.50
-44.49
-46.10
-44.39
-39.05
-30.57
-20.07
-8.93
1.60
10.66
17.93
23.39
27.12
29.18
29.67
28.76
26.80
24.26
21.60
19.19
17.20
15.72
14.84
14.64
15.18
16.35
17.94
19.65
21.25
22.62
23.72
24.54
24.99
24.88
24.05
22.41
19.98
16.91
13.32
9.32
4.95
0.19
-5.00
-10.62
-16.64
-23.05
-29.75
-36.52
-42.90
-48.14
-51.36
-51.81
-49.13
-43.60
-36.01
-27.43
-18.90
-11.20
-4.77
0.14
3.39
4.95
5.01
4.01
2.64
1.59
1.33
1.97
3.22
4.63
5.69
6.10
5.74
4.74
3.36
1.93
0.75
-0.07
-0.58
-0.98
-1.50
-2.25
-3.25
-4.35
-5.45
-6.45
-7.32
-8.04
-8.63
-9.14
-9.73
-10.65
-12.04
-13.77
-15.28
-15.67
-13.93
-9.35
-1.80
8.19
19.56
31.12
41.83
51.08
58.66
64.67
69.31
72.73
74.98
76.06
76.10
75.38
74.37
73.57
73.37
73.84
74.74
75.65
76.16
76.02
75.20
73.82
71.96
69.60
66.59
62.66
57.63
51.40
44.08
35.86
27.11
18.23
9.67
1.84
-5.00
-10.84
-15.97
-20.97
-26.52
-33.19
-41.19
-50.24
-59.47
-67.66
-73.40
-75.61
-73.78
-68.17
-59.79
-50.10
-40.68
-32.82
-27.33
-24.43
-23.89
-25.24
-27.91
-31.40
-35.31
-39.41
-43.54
-47.66
-51.71
-55.63
-59.31
-62.65
-65.50
-67.81
-69.53
-70.57
-70.80
-70.03
-68.02
-64.61
-59.74
-53.56
-46.32
-38.36
-29.99
-21.52
-13.18
-5.20
2.18
8.67
14.09
18.27
21.19
22.98
23.82
23.92
23.49
22.69
21.81
21.23
21.52
23.21
26.67
31.90
38.45
45.63
52.75
59.37
65.41
71.09
76.65
82.17
87.48
92.09
95.47
97.10
96.74
94.41
90.38
85.07
78.91
72.19
65.14
57.91
50.56
43.14
35.66
28.08
20.43
12.79
5.43
-1.30
-7.08
-11.82
-15.69
-19.10
-22.56
-26.51
-31.11
-36.30
-41.76
-47.09
-51.93
-56.07
-59.49
-62.40
-65.09
-67.86
-70.91
-74.17
-77.24
-79.34
-79.40
-76.23
-68.92
-57.15
-41.44
-23.12
-4.00
14.18
30.12
43.25
53.64
61.65
67.72
72.08
74.90
76.31
76.55
75.94
74.69
72.78
69.93
65.80
60.19
53.28
45.71
38.33
31.97
27.06
23.53
20.80
18.06
14.57
9.92
4.13
-2.49
-9.45
-16.40
-23.19
-29.92
-36.81
-44.07
-51.78
-59.76
-67.59
-74.53
-79.65
-81.92
-80.45
-74.84
-65.29
-52.70
-38.38
-23.83
-10.34
1.18
10.32
17.15
22.08
25.67
28.50
30.92
33.05
34.79
35.94
36.38
36.22
35.74
35.29
35.16
35.41
35.80
35.90
35.18
33.17
29.58
24.32
17.53
9.50
0.54
-9.05
-19.13
-29.58
-40.23
-50.80
-60.81
-69.71
-77.00
-82.48
-86.29
-88.95
-91.11
-93.31
-95.70
-97.93
-99.19
-98.52
-95.10
-88.54
-79.00
-67.11
-53.82
-40.14
-27.00
-15.21
-5.48
1.63
5.76
6.84
5.16
1.33
-3.81
-9.40
-14.70
-19.08
-22.09
-23.39
-22.74
-20.09
-15.54
-9.48
-2.47
4.82
11.76
17.83
22.75
26.48
29.17
31.02
32.25
32.96
33.13
32.69
31.52
29.50
26.48
22.37
17.16
10.90
3.77
-4.02
-12.09
-19.90
-26.58
-30.98
-31.81
-28.10
-19.62
-7.16
7.51
22.23
35.04
44.82
51.39
55.31
57.39
58.18
57.85
56.31
53.47
49.47
44.67
39.51
34.30
29.06
23.63
17.88
11.86
5.89
0.40
-4.23
-7.81
-10.43
-12.32
-13.74
-14.85
-15.80
-16.63
-17.37
-18.03
-18.53
-18.79
-18.80
-18.69
-18.77
-19.49
-21.26
-24.32
-28.60
-33.65
-38.65
-42.55
-44.20
-42.67
-37.46
-28.75
-17.30
-4.37
8.63
20.43
30.17
37.35
41.85
43.81
43.55
41.54
38.38
34.69
31.01
27.73
24.98
22.69
20.69
18.84
17.13
15.67
14.62
14.05
13.86
13.78
13.44
12.50
10.73
8.09
4.71
0.88
-3.06
-6.83
-10.33
-13.65
-17.05
-20.88
-25.40
-30.72
-36.59
-42.40
-47.18
-49.69
-48.78
-43.75
-34.61
-22.27
-8.33
5.38
17.29
26.48
32.83
36.73
38.81
39.56
39.29
38.15
36.32
34.12
32.01
30.40
29.57
29.48
29.91
30.56
31.21
31.73
32.09
32.26
32.11
31.40
29.84
27.13
23.08
17.73
11.31
4.30
-2.73
-9.29
-15.14
-20.34
-25.31
-30.63
-36.83
-44.14
-52.25
-60.29
-66.90
-70.60
-70.17
-65.10
-55.73
-43.24
-29.21
-15.22
-2.44
8.52
17.54
24.78
30.47
34.82
37.98
40.12
41.38
41.93
41.93
41.52
40.79
39.82
38.69
37.47
36.21
34.95
33.68
32.36
30.91
29.23
27.19
24.67
21.54
17.80
13.53
8.90
4.20
-0.36
-4.62
-8.59
-12.36
-16.07
-19.89
-23.99
-28.58
-33.84
-39.81
-46.14
-52.03
-56.33
-57.77
-55.50
-49.30
-39.69
-27.76
-14.82
-2.10
9.49
19.37
27.25
33.08
36.99
39.24
40.22
40.32
39.89
39.19
38.34
37.40
36.32
35.09
33.75
32.42
31.23
30.29
29.58
28.96
28.21
27.09
25.46
23.30
20.66
17.61
14.17
10.31
6.00
1.31
-3.62
-8.56
-13.31
-17.74
-21.94
-26.05
-30.32
-34.96
-40.10
-45.76
-51.78
-57.72
-62.80
-66.02
-66.33
-63.02
-55.98
-45.86
-33.85
-21.37
-9.64
0.60
9.06
15.75
20.79
24.29
26.33
27.13
27.06
26.60
26.23
26.24
26.67
27.34
27.96
28.33
28.35
28.14
27.85
27.63
27.47
27.23
26.63
25.39
23.38
20.67
17.51
14.24
11.14
8.30
5.58
2.76
-0.40
-4.01
-7.99
-12.10
-16.08
-19.73
-23.01
-26.01
-28.95
-32.11
-35.78
-40.20
-45.39
-51.06
-56.47
-60.48
-61.82
-59.44
-52.98
-42.89
-30.38
-17.01
-4.20
7.07
16.41
23.82
29.43
33.37
35.71
36.59
36.25
35.08
33.48
31.79
30.18
28.72
27.41
26.26
25.33
24.66
24.23
23.92
23.59
23.05
22.18
20.98
19.53
17.96
16.35
14.74
13.05
11.17
9.00
6.52
3.75
0.86
-1.98
-4.57
-6.83
-8.82
-10.75
-13.01
-16.01
-20.08
-25.23
-31.03
-36.66
-41.02
-43.06
-42.03
-37.74
-30.55
-21.25
-10.84
-0.30
9.56
18.16
25.18
30.43
33.89
35.71
36.18
35.68
34.66
33.49
32.44
31.63
31.05
30.67
30.44
30.32
30.27
30.18
29.88
29.19
27.95
26.11
23.68
20.70
17.13
12.90
7.97
2.40
-3.59
-9.71
-15.70
-21.42
-26.89
-32.24
-37.53
-42.79
-48.00
-53.18
-58.48
-64.06
-70.00
-76.00
-81.34
-84.95
-85.68
-82.65
-75.60
-65.01
-51.95
-37.87
-24.13
-11.75
-1.33
6.96
13.22
17.66
20.56
22.21
22.97
23.22
23.31
23.46
23.71
23.93
23.97
23.70
23.14
22.42
21.71
21.09
20.53
19.84
18.81
17.24
15.08
12.47
9.63
6.81
4.21
1.89
-0.23
-2.27
-4.32
-6.39
-8.36
-10.11
-11.63
-13.13
-14.95
-17.50
-21.07
-25.72
-31.21
-37.06
-42.62
-47.13
-49.83
-50.00
-47.20
-41.34
-32.82
-22.56
-11.68
-1.34
7.59
14.68
19.86
23.26
25.12
25.67
25.15
23.89
22.23
20.55
19.10
18.02
17.30
16.86
16.60
16.42
16.29
16.19
16.05
15.79
15.30
14.48
13.28
11.72
9.92
8.09
6.42
5.02
3.82
2.55
0.89
-1.47
-4.54
-8.13
-11.78
-15.15
-18.10
-20.81
-23.74
-27.40
-32.17
-38.09
-44.83
-51.72
-57.81
-62.06
-63.50
-61.55
-56.15
-47.86
-37.74
-27.01
-16.78
-7.73
-0.12
6.20
11.59
16.43
21.08
25.73
30.40
34.90
38.94
42.24
44.67
46.30
47.37
48.09
48.54
48.57
47.96
46.52
44.26
41.41
38.35
35.47
32.96
30.86
29.01
27.21
25.23
22.89
20.05
16.72
12.87
8.60
3.93
-1.11
-6.58
-12.63
-19.47
-27.34
-36.29
-46.09
-56.02
-64.94
-71.44
-74.21
-72.46
-66.19
-56.18
-43.78
-30.57
-17.96
-6.97
1.80
8.10
11.91
13.30
12.46
9.69
5.49
0.61
-4.06
-7.70
-9.70
-9.97
-8.88
-7.16
-5.57
-4.64
-4.55
-5.08
-5.84
-6.35
-6.25
-5.31
-3.50
-1.03
1.75
4.35
6.31
7.25
6.99
5.49
2.83
-0.86
-5.44
-10.72
-16.53
-22.73
-29.39
-36.64
-44.63
-53.10
-61.25
-67.72
-70.96
-69.74
-63.69
-53.47
-40.51
-26.46
-12.65
0.25
12.12
23.13
33.29
42.35
49.83
55.27
58.43
59.38
58.50
56.28
53.22
49.72
46.12
42.68
39.64
37.16
35.26
33.85
32.67
31.40
29.77
27.64
25.06
22.24
19.46
16.95
14.77
12.74
10.58
7.96
4.68
0.80
-3.40
-7.49
-11.12
-14.22
-17.14
-20.50
-24.99
-30.97
-38.21
-45.80
-52.31
-56.27
-56.47
-52.44
-44.50
-33.64
-21.23
-8.60
3.19
13.51
22.09
28.90
34.06
37.67
39.89
40.94
41.10
40.63
39.75
38.55
37.00
35.12
32.97
30.75
28.73
27.15
26.15
25.67
25.50
25.38
25.07
24.44
23.53
22.44
21.28
20.10
18.80
17.23
15.28
13.00
10.58
8.28
6.30
4.64
3.09
1.24
-1.37
-5.20
-10.52
-17.32
-25.15
-33.00
-39.56
-43.47
-43.83
-40.55
-34.37
-26.63
-18.76
-11.91
-6.69
-3.18
-1.12
-0.17
-0.04
-0.61
-1.78
-3.44
-5.38
-7.27
-8.74
-9.54
-9.60
-9.08
-8.27
-7.47
-6.84
-6.38
-5.93
-5.29
-4.18
-2.39
0.26
3.83
8.12
12.75
17.15
20.79
23.34
24.71
25.05
24.53
23.31
21.34
18.52
14.66
9.69
3.66
-3.13
-10.05
-16.14
-20.29
-21.49
-19.25
-13.78
-6.04
2.58
10.76
17.55
22.62
26.04
28.13
29.14
29.24
28.58
27.33
25.80
24.27
22.91
21.70
20.49
19.13
17.59
16.02
14.67
13.78
13.46
13.56
13.78
13.74
13.08
11.61
9.36
6.50
3.37
0.27
-2.58
-5.14
-7.50
-9.84
-12.33
-15.02
-17.89
-20.85
-23.84
-26.93
-30.29
-34.13
-38.63
-43.71
-48.93
-53.53
-56.46
-56.70
-53.57
-47.03
-37.74
-27.00
-16.32
-7.07
-0.08
4.45
6.83
7.59
7.24
6.16
4.57
2.62
0.51
-1.59
-3.54
-5.24
-6.67
-7.80
-8.59
-9.02
-9.09
-8.89
-8.63
-8.60
-9.06
-10.18
-11.96
-14.23
-16.77
-19.36
-21.88
-24.38
-26.96
-29.64
-32.27
-34.45
-35.70
-35.67
-34.37
-32.15
-29.71
-27.80
-27.00
-27.56
-29.31
-31.69
-33.77
-34.46
-32.76
-28.08
-20.46
-10.66
0.07
10.38
19.20
26.03
30.93
34.28
36.56
38.14
39.17
39.73
39.85
39.57
39.00
38.20
37.18
35.89
34.23
32.16
29.71
26.99
24.23
21.65
19.42
17.58
16.09
14.90
13.98
13.32
12.94
12.73
12.41
11.57
9.80
6.86
2.75
-2.26
-7.87
-13.93
-20.53
-27.88
-36.07
-44.73
-52.96
-59.47
-62.95
-62.56
-58.19
-50.43
-40.35
-29.16
-17.86
-7.17
2.49
10.88
17.87
23.36
27.35
29.93
31.30
31.74
31.53
30.92
30.11
29.20
28.29
27.44
26.71
26.13
25.64
25.17
24.58
23.79
22.71
21.36
19.77
18.00
16.11
14.04
11.73
9.05
5.95
2.50
-1.10
-4.60
-7.83
-10.79
-13.71
-17.00
-21.11
-26.35
-32.66
-39.52
-45.92
-50.53
-52.10
-49.83
-43.67
-34.40
-23.40
-12.24
-2.14
6.23
12.80
17.84
21.74
24.78
27.11
28.79
29.84
30.31
30.23
29.65
28.61
27.19
25.60
24.08
22.93
22.31
22.19
22.33
22.36
21.93
20.85
19.17
17.10
14.91
12.72
10.56
8.27
5.78
3.07
0.26
-2.48
-5.09
-7.63
-10.28
-13.24
-16.69
-20.68
-25.23
-30.18
-35.17
-39.55
-42.41
-42.78
-39.90
-33.58
-24.30
-13.09
-1.22
10.19
20.34
28.84
35.62
40.73
44.30
46.51
47.60
47.85
47.53
46.87
45.97
44.89
43.68
42.42
41.13
39.83
38.42
36.77
34.76
32.36
29.62
26.57
23.14
19.19
14.48
8.81
2.10
-5.51
-13.78
-22.31
-30.64
-38.31
-44.93
-50.31
-54.47
-57.78
-60.74
-63.85
-67.31
-70.89
-73.88
-75.25
-74.02
-69.51
-61.66
-51.01
-38.65
-25.86
-13.90
-3.67
4.36
10.15
13.99
16.29
17.50
18.03
18.17
18.22
18.36
18.77
19.46
20.31
21.10
21.58
21.56
20.98
19.96
18.70
17.34
15.92
14.28
12.23
9.62
6.47
3.05
-0.20
-2.83
-4.59
-5.55
-6.04
-6.55
-7.56
-9.37
-12.07
-15.50
-19.31
-22.91
-25.54
-26.31
-24.43
-19.46
-11.53
-1.38
9.72
20.38
29.42
36.15
40.37
42.33
42.47
41.27
39.23
36.82
34.51
32.74
31.72
31.36
31.33
31.07
30.14
28.38
25.94
23.20
20.57
18.27
16.31
14.47
12.44
9.86
6.39
1.68
-4.47
-12.03
-20.65
-29.58
-37.84
-44.47
-48.84
-50.88
-51.11
-50.40
-49.75
-49.99
-51.58
-54.53
-58.41
-62.36
-65.28
-66.01
-63.62
-57.66
-48.32
-36.41
-23.13
-9.81
2.40
12.79
21.05
27.31
31.92
35.37
38.08
40.29
42.10
43.50
44.48
45.11
45.61
46.25
47.26
48.73
50.56
52.50
54.25
55.44
55.76
55.04
53.27
50.62
47.39
43.90
40.32
36.68
32.81
28.49
23.61
18.25
12.67
7.34
2.67
-1.16
-4.44
-7.93
-12.67
-19.62
-29.14
-40.73
-52.99
-63.99
-71.79
-74.97
-72.97
-66.18
-55.83
-43.64
-31.43
-20.76
-12.64
-7.42
-4.74
-3.78
-3.45
-2.73
-0.87
2.44
6.99
12.17
17.13
21.05
23.45
24.32
24.06
23.31
22.59
22.14
21.89
21.52
20.71
19.25
17.04
14.04
10.20
5.43
-0.29
-6.80
-13.77
-20.77
-27.38
-33.41
-38.94
-44.25
-49.73
-55.75
-62.49
-69.89
-77.57
-84.79
-90.50
-93.60
-93.13
-88.57
-79.97
-67.93
-53.46
-37.63
-21.40
-5.45
9.77
23.96
36.85
48.19
57.81
65.70
72.03
77.10
81.17
84.35
86.53
87.47
86.97
85.00
81.77
77.61
72.85
67.69
62.20
56.40
50.37
44.21
38.00
31.65
24.91
17.50
9.27
0.33
-8.97
-18.23
-27.16
-35.75
-44.17
-52.67
-61.33
-69.97
-78.14
-85.19
-90.40
-93.12
-92.96
-89.89
-84.23
-76.56
-67.58
-57.88
-47.84
-37.69
-27.59
-17.68
-8.14
0.84
9.14
16.64
23.28
28.90
33.32
36.39
38.06
38.50
38.04
37.10
36.09
35.25
34.64
34.16
33.61
32.81
31.68
30.21
28.41
26.26
23.69
20.60
17.03
13.12
9.08
5.15
1.46
-2.04
-5.47
-9.03
-12.82
-16.88
-21.24
-25.84
-30.53
-34.95
-38.46
-40.24
-39.51
-35.92
-29.69
-21.63
-12.82
-4.24
3.47
10.06
15.52
19.90
23.12
25.10
25.85
25.52
24.43
22.93
21.27
19.61
18.01
16.49
15.06
13.70
12.38
11.00
9.53
7.99
6.44
4.90
3.32
1.54
-0.69
-3.50
-6.91
-10.73
-14.61
-18.21
-21.26
-23.66
-25.55
-27.25
-29.15
-31.61
-34.78
-38.54
-42.43
-45.76
-47.70
-47.51
-44.73
-39.35
-31.80
-22.92
-13.71
-5.11
2.18
7.80
11.71
14.06
15.11
15.15
14.45
13.32
12.09
11.06
10.37
10.07
9.98
9.88
9.55
8.94
8.19
7.48
6.97
6.64
6.27
5.52
4.09
1.90
-0.90
-3.91
-6.72
-9.08
-11.02
-12.84
-15.04
-18.08
-22.18
-27.17
-32.45
-37.10
-40.16
-40.81
-38.71
-34.02
-27.34
-19.51
-11.39
-3.66
3.26
9.14
13.90
17.51
20.01
21.54
22.29
22.53
22.48
22.32
22.11
21.90
21.64
21.29
20.84
20.27
19.60
18.86
18.03
17.10
15.99
14.58
12.74
10.35
7.35
3.81
-0.10
-4.10
-7.94
-11.44
-14.64
-17.73
-21.09
-25.12
-30.15
-36.18
-42.82
-49.19
-54.11
-56.28
-54.79
-49.37
-40.55
-29.48
-17.53
-5.89
4.68
13.86
21.58
27.80
32.49
35.58
37.20
37.64
37.36
36.86
36.47
36.32
36.32
36.33
36.20
35.87
35.32
34.53
33.46
31.99
30.04
27.54
24.48
20.91
16.89
12.49
7.80
2.94
-1.99
-6.84
-11.51
-15.93
-20.17
-24.34
-28.68
-33.48
-39.06
-45.61
-53.02
-60.71
-67.64
-72.53
-74.28
-72.42
-67.28
-59.89
-51.54
-43.27
-35.58
-28.46
-21.71
-15.33
-9.67
-5.25
-2.48
-1.41
-1.58
-2.25
-2.64
-2.14
-0.47
2.33
5.95
9.90
13.71
17.08
19.96
22.52
24.92
27.07
28.56
28.73
27.07
23.52
18.73
13.80
9.94
8.04
8.33
10.38
13.16
15.35
15.55
12.68
6.30
-3.07
-13.97
-24.24
-31.59
-34.27
-31.54
-23.84
-12.51
0.68
14.03
26.25
36.54
44.49
49.92
52.79
53.15
51.24
47.45
42.31
36.46
30.46
24.72
19.44
14.61
10.01
5.33
0.29
-5.28
-11.33
-17.59
-23.64
-29.10
-33.73
-37.48
-40.47
-42.86
-44.78
-46.28
-47.28
-47.69
-47.36
-46.17
-44.12
-41.31
-38.05
-34.84
-32.27
-30.87
-30.88
-32.04
-33.54
-34.07
-32.18
-26.65
-16.92
-3.30
13.16
30.91
48.35
64.19
77.63
88.33
96.29
101.67
104.67
105.51
104.41
101.67
97.65
92.79
87.56
82.38
77.60
73.33
69.48
65.72
61.60
56.74
50.97
44.40
37.46
30.67
24.52
19.33
15.16
11.86
9.20
6.93
4.83
2.70
0.37
-2.25
-5.17
-8.29
-11.54
-15.00
-19.00
-24.02
-30.52
-38.61
-47.85
-57.25
-65.52
-71.46
-74.36
-74.18
-71.38
-66.73
-60.91
-54.38
-47.38
-40.08
-32.73
-25.71
-19.51
-14.55
-11.09
-9.14
-8.45
-8.62
-9.12
-9.42
-9.01
-7.51
-4.73
-0.79
3.90
8.71
12.99
16.30
18.55
19.92
20.74
21.27
21.49
21.17
20.07
18.07
15.36
12.29
9.25
6.43
3.74
0.92
-2.39
-6.47
-11.39
-17.06
-23.16
-29.10
-34.13
-37.35
-37.95
-35.44
-29.82
-21.64
-11.88
-1.64
8.06
16.50
23.28
28.26
31.50
33.21
33.69
33.29
32.44
31.49
30.72
30.24
30.00
29.79
29.37
28.54
27.25
25.64
23.95
22.37
20.93
19.48
17.76
15.55
12.77
9.53
5.99
2.34
-1.33
-4.96
-8.53
-11.98
-15.34
-18.77
-22.54
-26.90
-31.90
-37.13
-41.78
-44.76
-45.12
-42.38
-36.73
-28.93
-20.12
-11.45
-3.77
2.45
7.13
10.46
12.70
14.15
15.03
15.51
15.67
15.66
15.59
15.63
15.92
16.53
17.45
18.59
19.84
21.04
22.10
22.85
23.13
22.78
21.69
19.93
17.69
15.25
12.86
10.60
8.40
6.03
3.32
0.17
-3.36
-7.13
-11.01
-14.84
-18.58
-22.26
-26.04
-30.11
-34.65
-39.60
-44.50
-48.52
-50.62
-49.90
-45.94
-38.93
-29.72
-19.45
-9.23
0.06
7.96
14.33
19.27
23.00
25.75
27.71
29.05
29.87
30.27
30.30
30.02
29.49
28.76
27.89
26.99
26.15
25.48
25.03
24.78
24.65
24.53
24.29
23.83
23.05
21.91
20.38
18.49
16.34
14.03
11.58
9.01
6.19
3.03
-0.53
-4.45
-8.67
-13.22
-18.24
-23.94
-30.52
-37.89
-45.63
-52.93
-58.80
-62.27
-62.78
-60.26
-55.18
-48.29
-40.44
-32.32
-24.34
-16.71
-9.51
-2.83
3.18
8.37
12.61
15.86
18.17
19.69
20.56
20.96
21.01
20.79
20.33
19.66
18.89
18.17
17.66
17.42
17.34
17.15
16.51
15.26
13.41
11.24
9.11
7.30
5.82
4.41
2.71
0.34
-2.78
-6.50
-10.46
-14.26
-17.66
-20.66
-23.51
-26.61
-30.31
-34.79
-39.93
-45.17
-49.68
-52.46
-52.60
-49.58
-43.42
-34.74
-24.58
-14.22
-4.75
3.08
8.96
13.03
15.64
17.26
18.28
18.92
19.31
19.49
19.48
19.40
19.39
19.56
19.98
20.62
21.39
22.14
22.74
23.05
22.96
22.39
21.27
19.65
17.58
15.20
12.66
10.06
7.42
4.70
1.86
-1.16
-4.39
-7.81
-11.39
-15.08
-18.88
-22.85
-27.18
-32.13
-37.84
-44.12
-50.34
-55.38
-57.97
-57.07
-52.28
-44.06
-33.55
-22.18
-11.31
-1.85
5.77
11.57
15.79
18.77
20.88
22.40
23.53
24.40
25.09
25.65
26.17
26.70
27.29
27.87
28.34
28.59
28.60
28.43
28.20
28.00
27.76
27.31
26.43
24.94
22.74
19.83
16.34
12.39
8.17
3.84
-0.44
-4.49
-8.27
-11.74
-14.96
-18.05
-21.15
-24.40
-28.02
-32.23
-37.12
-42.50
-47.80
-52.02
-54.01
-52.78
-47.86
-39.57
-28.90
-17.25
-6.03
3.70
11.42
17.17
21.26
24.15
26.20
27.64
28.55
28.93
28.81
28.29
27.55
26.78
26.14
25.75
25.60
25.63
25.69
25.62
25.28
24.60
23.57
22.23
20.62
18.71
16.41
13.56
10.05
5.89
1.21
-3.69
-8.51
-12.97
-16.92
-20.37
-23.52
-26.69
-30.26
-34.50
-39.42
-44.63
-49.34
-52.55
-53.34
-51.19
-46.16
-38.81
-30.12
-21.12
-12.75
-5.68
-0.31
3.23
5.03
5.38
4.66
3.32
1.75
0.22
-1.11
-2.17
-2.98
-3.55
-3.92
-4.07
-3.97
-3.55
-2.74
-1.59
-0.25
0.92
1.54
1.31
0.17
-1.70
-3.90
-6.01
-7.78
-9.19
-10.59
-12.46
-15.34
-19.62
-25.35
-32.20
-39.40
-45.94
-50.70
-52.80
-51.73
-47.50
-40.55
-31.69
-21.85
-11.95
-2.73
5.35
12.12
17.62
22.07
25.67
28.70
31.40
34.04
36.86
39.98
43.25
46.34
48.77
50.12
50.22
49.20
47.42
45.26
43.01
40.75
38.42
35.91
33.13
30.07
26.76
23.26
19.59
15.78
11.78
7.54
2.99
-1.98
-7.50
-13.67
-20.43
-27.49
-34.32
-40.15
-44.24
-46.04
-45.42
-42.64
-38.34
-33.21
-27.96
-23.06
-18.86
-15.53
-13.21
-11.93
-11.61
-11.99
-12.64
-13.05
-12.83
-11.74
-9.84
-7.36
-4.52
-1.47
1.80
5.41
9.39
13.61
17.77
21.43
24.15
25.62
25.68
24.36
21.80
18.23
13.91
9.15
4.20
-0.75
-5.73
-10.87
-16.39
-22.41
-28.72
-34.76
-39.57
-42.12
-41.62
-37.80
-31.05
-22.31
-12.71
-3.34
5.06
12.18
17.99
22.66
26.38
29.31
31.56
33.15
34.09
34.33
33.82
32.62
30.90
28.98
27.18
25.74
24.67
23.72
22.54
20.79
18.35
15.35
12.11
8.94
6.07
3.50
1.11
-1.29
-3.88
-6.81
-10.22
-14.18
-18.65
-23.24
-27.27
-29.82
-29.98
-27.26
-21.75
-14.12
-5.36
3.45
11.53
18.38
23.77
27.60
29.83
30.53
29.87
28.22
26.00
23.64
21.44
19.56
18.11
17.11
16.59
16.52
16.82
17.30
17.69
17.70
17.08
15.67
13.44
10.49
7.03
3.36
-0.25
-3.65
-6.82
-9.98
-13.35
-17.24
-21.79
-26.87
-32.04
-36.54
-39.38
-39.63
-36.70
-30.61
-21.99
-11.87
-1.43
8.36
16.86
23.78
29.00
32.51
34.40
34.87
34.29
33.11
31.80
30.70
30.01
29.76
29.89
30.28
30.71
30.98
30.90
30.42
29.61
28.63
27.51
26.04
23.75
20.10
14.80
8.13
0.95
-5.51
-10.14
-12.38
-12.52
-11.55
-10.85
-11.68
-14.87
-20.58
-28.29
-36.85
-44.64
-49.82
-50.74
-46.37
-36.68
-22.63
-5.99
11.17
26.99
40.13
49.72
55.38
57.07
55.06
49.92
42.48
33.65
24.26
14.99
6.35
-1.28
-7.60
-12.50
-16.13
-18.88
-21.21
-23.38
-25.27
-26.39
-26.20
-24.42
-21.20
-17.12
-12.97
-9.36
-6.57
-4.54
-2.99
-1.63
-0.29
0.94
1.80
1.90
0.78
-1.97
-6.64
-13.25
-21.35
-29.87
-37.15
-41.18
-40.28
-33.78
-22.54
-8.77
4.66
15.36
22.26
25.83
27.47
28.65
30.12
31.63
32.38
31.61
29.14
25.50
21.63
18.35
15.99
14.29
12.60
10.29
7.06
3.16
-0.76
-3.95
-6.03
-7.21
-8.21
-9.94
-12.96
-17.27
-22.28
-27.23
-31.64
-35.51
-39.26
-43.44
-48.30
-53.65
-59.02
-63.88
-67.95
-71.12
-73.27
-74.03
-72.75
-68.59
-60.98
-49.85
-35.80
-19.95
-3.69
11.63
24.96
35.67
43.59
49.03
52.70
55.59
58.74
63.02
68.89
76.25
84.46
92.43
98.93
102.93
103.93
102.21
98.68
94.50
90.57
86.96
82.81
76.64
67.04
53.40
36.38
17.74
-0.34
-16.03
-28.53
-38.14
-45.83
-52.60
-59.03
-65.16
-70.70
-75.41
-79.37
-82.90
-86.36
-89.83
-92.88
-94.69
-94.28
-90.93
-84.58
-75.86
-66.01
-56.38
-48.05
-41.44
-36.34
-32.16
-28.28
-24.40
-20.56
-16.95
-13.69
-10.61
-7.25
-3.05
2.43
9.28
17.18
25.47
33.25
39.54
43.55
44.85
43.59
40.45
36.45
32.43
28.70
24.87
20.22
14.17
6.76
-1.31
-9.00
-15.48
-20.47
-24.24
-27.26
-29.76
-31.60
-32.38
-31.80
-29.94
-27.28
-24.58
-22.59
-21.83
-22.52
-24.49
-27.20
-29.79
-31.21
-30.43
-26.78
-20.13
-11.00
-0.45
10.22
19.84
27.64
33.38
37.24
39.63
40.94
41.43
41.24
40.48
39.44
